isolate_id,position,amino_acid,is_mixture
146990,10,I,0
146990,33,I,0
146990,63,P,0
146990,93,L,0
146991,35,I,0
146991,69,N,0
146991,83,K,0
146991,207,E,0
146991,211,K,0
146991,247,R,0
146992,8,P,0
146992,16,R,0
146992,18,P,0
146992,24,S,1
146992,30,H,0
146992,35,H,0
146992,37,D,0
146992,38,F,1
146992,45,T,1
146992,63,P,0
146992,68,R,1
146992,90,F,1
146992,93,L,0
146993,26,F,0
146993,40,A,0
146993,70,Q,0
146993,162,C,0
146993,211,K,0
146994,2,H,1
146994,16,A,0
146994,21,K,1
146994,30,E,0
146994,38,F,1
146994,41,K,0
146994,48,C,0
146994,64,V,0
146994,68,A,1
146995,122,E,0
146995,173,T,0
146995,177,E,0
146995,200,A,0
146995,207,G,0
146995,211,K,0
146995,248,D,1
146996,35,N,0
146996,37,D,0
146996,63,P,0
146996,88,Y,0
146996,93,L,0
146997,17,V,1
146997,26,F,1
146997,99,V,1
146997,162,C,0
146997,203,G,0
146997,211,K,0
146997,232,C,1
146998,2,K,0
146998,15,V,0
146998,36,I,0
146998,37,D,0
146998,63,C,0
146998,93,L,0
146999,121,Y,0
146999,122,E,0
146999,135,T,0
146999,162,C,0
146999,177,E,0
146999,189,I,0
146999,251,R,1
147000,2,S,1
147000,14,D,0
147000,19,T,0
147000,37,Q,0
147000,63,P,0
147000,65,K,0
147000,70,T,0
147001,25,R,1
147001,26,F,0
147001,50,V,0
147001,83,K,0
147001,87,Y,1
147001,162,C,0
147001,211,K,0
147001,220,R,1
147001,249,N,0
147002,7,P,0
147002,14,Q,1
147002,17,A,1
147002,29,G,1
147002,34,G,1
147002,35,N,0
147002,37,P,0
147002,38,F,1
147002,47,M,0
147002,57,K,0
147002,61,K,0
147002,63,P,0
147002,64,V,0
147002,92,R,1
147002,93,L,0
147002,95,stop,0
147003,6,D,0
147003,17,G,0
147003,62,P,0
147003,98,G,0
147003,186,E,0
147003,200,E,0
147003,207,E,0
147003,211,K,0
147003,214,V,1
147004,15,V,0
147004,35,T,0
147004,36,I,0
147004,41,K,0
147004,62,V,0
147004,63,P,0
147005,53,Q,1
147005,64,R,0
147005,113,Y,0
147005,135,T,0
147005,200,A,0
147005,214,L,0
147005,215,S,1
147006,13,V,0
147006,37,D,0
147006,63,P,0
147006,64,L,0
147006,72,V,0
147007,26,F,1
147007,35,I,0
147007,37,M,1
147007,83,K,0
147007,99,X,0
147007,102,Q,0
147007,115,C,0
147007,121,H,0
147007,122,E,0
147007,135,R,0
147007,154,E,0
147007,162,Y,0
147007,174,R,1
147007,199,I,0
147007,211,G,0
147007,222,H,1
147007,223,I,1
147007,229,L,0
147007,241,L,0
147007,250,E,0
147008,12,P,0
147008,61,K,0
147008,63,Q,0
147008,65,D,0
147008,77,I,0
147008,93,L,0
147009,35,I,1
147009,211,K,0
147009,247,S,1
147009,248,K,1
147010,63,P,0
147010,64,V,0
147010,83,K,0
147011,26,F,1
147011,60,I,0
147011,67,X,0
147011,102,Q,0
147011,123,E,0
147011,138,A,0
147011,142,T,0
147011,162,C,0
147011,173,T,0
147011,196,E,0
147011,248,D,0
147012,2,K,0
147012,12,N,0
147012,14,R,0
147012,25,K,0
147012,35,N,0
147012,37,D,0
147012,43,N,0
147012,59,F,0
147012,60,G,0
147012,63,P,0
147012,67,S,0
147013,26,F,1
147013,27,K,1
147013,83,K,0
147013,122,E,0
147013,123,N,0
147013,135,T,0
147013,173,R,0
147013,174,K,0
147013,178,M,0
147013,211,K,0
147014,10,V,0
147014,37,S,0
147014,62,V,0
147014,63,P,0
147014,93,L,0
147015,14,T,0
147015,35,I,0
147015,138,A,0
147015,142,T,0
147015,162,C,0
147015,211,K,0
147015,248,G,1
147015,249,stop,1
147016,25,E,0
147016,36,I,0
147016,41,K,0
147016,57,K,0
147017,5,V,0
147017,35,T,0
147017,39,K,0
147017,60,I,0
147017,162,C,0
147017,211,K,0
147017,217,Q,1
147017,250,E,1
147018,25,E,0
147018,36,I,0
147018,41,K,0
147018,57,T,0
147018,92,K,0
147019,5,V,0
147019,35,T,0
147019,39,K,0
147019,53,Q,0
147019,60,I,0
147019,135,V,0
147019,177,E,0
147019,204,K,0
147019,207,E,0
147019,245,I,0
147019,250,E,0
147019,251,N,0
147020,46,I,1
147020,83,K,0
147020,92,K,0
147021,17,V,1
147021,26,F,0
147021,35,I,0
147021,40,K,1
147021,44,D,0
147021,49,R,0
147021,62,T,0
147021,83,N,0
147021,113,Y,0
147021,123,E,0
147021,165,I,0
147021,169,D,0
147021,178,L,0
147021,202,V,0
147022,8,P,0
147022,10,V,0
147022,11,L,0
147022,29,A,1
147022,30,N,1
147022,37,S,0
147022,62,V,0
147022,63,P,0
147022,93,L,0
147023,14,T,0
147023,26,F,0
147023,35,I,0
147023,142,N,0
147023,162,C,0
147023,200,I,0
147023,207,P,0
147023,245,E,0
147023,246,W,0
147023,247,R,0
147023,250,E,0
147024,2,K,1
147024,10,I,0
147024,13,V,0
147024,15,V,0
147024,35,D,0
147024,37,D,0
147024,57,K,0
147024,62,V,0
147024,63,S,0
147024,71,V,0
147024,72,M,0
147024,93,L,0
147025,70,Q,1
147025,122,E,0
147025,135,T,0
147025,162,C,0
147025,200,A,0
147025,233,A,1
147025,248,D,0
147026,13,V,0
147026,20,R,0
147026,36,I,0
147026,41,K,0
147026,62,V,0
147026,63,P,0
147026,69,K,0
147026,70,T,1
147026,89,M,0
147026,93,L,0
147027,24,C,0
147027,35,T,0
147027,36,A,0
147027,39,E,0
147027,43,R,0
147027,45,X,0
147027,122,E,0
147027,123,G,0
147027,158,S,0
147027,173,V,0
147027,174,K,0
147027,177,E,0
147027,184,V,0
147027,200,A,0
147027,207,E,0
147027,245,K,0
147027,249,Q,0
147028,13,V,0
147028,35,D,0
147028,36,I,0
147028,37,D,0
147028,41,K,0
147028,57,K,0
147028,60,E,0
147028,69,K,0
147028,89,M,0
147029,35,T,0
147029,60,I,0
147029,108,I,0
147029,121,Y,0
147029,122,E,0
147029,123,E,0
147029,135,T,1
147029,177,E,0
147029,179,E,0
147029,207,E,0
147029,211,K,0
147029,245,E,0
147030,13,V,0
147030,35,D,0
147030,36,I,0
147030,37,D,0
147030,41,K,0
147030,57,K,0
147030,60,E,0
147030,69,K,0
147030,89,M,0
147031,35,T,0
147031,53,Q,0
147031,60,I,0
147031,108,I,0
147031,119,T,0
147031,121,Y,0
147031,122,E,0
147031,123,E,0
147031,126,T,0
147031,132,M,0
147031,134,G,0
147031,135,R,0
147031,136,E,1
147031,137,G,0
147031,145,stop,0
147031,147,D,0
147031,150,R,1
147031,159,V,0
147031,161,V,1
147031,162,G,0
147031,163,G,0
147031,164,V,0
147031,166,I,0
147031,167,V,1
147031,168,stop,0
147031,171,X,1
147031,172,G,1
147031,177,E,0
147031,179,E,0
147031,181,S,0
147031,187,W,0
147031,188,S,0
147031,191,C,1
147031,193,F,1
147031,194,V,1
147031,195,V,0
147031,197,R,1
147031,199,S,1
147031,202,M,1
147031,207,G,0
147031,211,K,0
147031,214,X,0
147031,217,R,1
147031,228,X,1
147031,233,V,1
147031,236,R,1
147031,240,R,1
147031,245,E,0
147031,248,D,1
147032,3,V,0
147032,10,V,0
147032,18,E,0
147032,28,G,0
147032,37,S,0
147032,58,P,0
147032,63,P,0
147032,65,V,1
147032,66,X,1
147032,68,A,1
147032,77,I,0
147032,79,S,0
147032,93,L,0
147033,14,T,0
147033,35,E,0
147033,49,R,0
147033,83,K,0
147033,142,T,0
147033,207,R,0
147033,245,K,0
147034,2,K,0
147034,5,F,1
147034,6,S,0
147034,11,L,0
147034,15,V,0
147034,18,H,0
147034,25,N,1
147034,30,Y,1
147034,32,L,1
147034,34,stop,0
147034,36,I,0
147034,38,F,0
147034,41,K,0
147034,42,L,0
147034,46,I,0
147034,58,N,0
147034,60,S,0
147034,69,K,0
147034,73,R,0
147034,75,L,0
147034,82,I,0
147034,86,stop,0
147034,89,M,0
147034,93,L,0
147034,94,V,1
147034,97,V,0
147035,4,S,0
147035,26,F,0
147035,27,K,0
147035,35,T,0
147035,36,A,0
147035,39,E,0
147035,42,D,0
147035,43,T,0
147035,53,Q,0
147035,70,Q,0
147035,122,E,0
147035,123,S,0
147035,158,S,0
147035,173,A,0
147035,174,R,0
147035,177,E,0
147035,178,M,0
147035,200,A,0
147035,207,E,0
147035,243,A,0
147035,245,Q,0
147036,2,K,0
147036,6,S,1
147036,11,L,0
147036,15,V,0
147036,18,H,0
147036,32,L,1
147036,36,I,0
147036,38,F,0
147036,41,K,0
147036,42,L,0
147036,46,I,0
147036,58,N,0
147036,60,S,0
147036,69,K,0
147036,73,R,0
147036,75,L,0
147036,82,I,0
147036,89,M,1
147036,93,L,0
147036,97,V,0
147037,4,S,1
147037,26,F,1
147037,27,K,0
147037,35,T,0
147037,36,A,0
147037,39,E,0
147037,42,D,0
147037,43,T,0
147037,53,Q,1
147037,70,N,1
147037,110,V,1
147037,117,L,1
147037,122,E,0
147037,126,R,1
147037,130,L,1
147037,134,R,1
147037,138,D,1
147037,145,H,1
147037,146,stop,1
147037,147,Y,1
147037,154,R,1
147037,158,S,1
147037,161,H,1
147037,172,S,1
147037,173,T,1
147037,174,R,1
147037,175,K,1
147037,177,E,0
147037,180,V,1
147037,183,stop,1
147037,188,F,1
147037,205,V,1
147037,207,K,1
147037,214,V,1
147037,219,N,1
147037,227,L,1
147037,232,D,1
147037,239,stop,1
147037,245,M,1
147037,248,Q,1
147037,250,E,1
147037,252,C,1
147038,35,D,0
147038,37,D,0
147038,63,P,0
147038,64,L,0
147039,69,S,0
147039,162,C,0
147039,211,K,0
147039,251,T,0
147040,63,P,0
147041,179,I,0
147041,200,A,0
147041,211,K,0
147041,250,Y,0
147042,63,P,0
147043,179,I,0
147043,200,A,1
147043,211,K,0
147043,250,Y,0
147044,41,K,0
147044,64,V,0
147045,142,T,0
147045,165,I,0
147045,202,V,0
147045,204,D,0
147046,6,stop,0
147046,12,A,0
147046,64,V,0
147047,6,D,0
147047,26,F,1
147047,53,Q,1
147047,70,E,0
147047,99,A,0
147047,165,I,0
147047,200,A,0
147047,202,V,0
147047,251,I,0
147048,15,V,0
147048,35,T,0
147048,36,I,0
147048,41,K,0
147048,62,V,0
147048,63,P,0
147049,26,F,0
147049,64,R,0
147049,135,T,0
147049,200,A,0
147049,214,L,0
147049,248,D,0
147050,36,I,0
147050,37,S,0
147050,63,P,0
147050,69,Q,0
147051,35,I,0
147051,83,K,0
147051,98,G,0
147051,135,T,0
147051,166,R,1
147051,202,V,0
147051,211,K,0
147051,245,Q,0
147051,250,E,0
147052,13,V,0
147052,63,P,0
147052,93,L,0
147053,28,G,0
147053,35,I,0
147053,83,K,0
147053,113,H,0
147053,122,E,0
147053,135,T,0
147053,162,C,0
147053,194,D,0
147053,196,E,1
147053,200,A,0
147053,207,E,0
147053,211,K,0
147054,12,N,0
147054,14,R,0
147054,25,E,0
147054,29,G,0
147054,35,N,0
147054,37,D,0
147054,63,P,0
147054,67,S,0
147055,83,K,0
147055,122,E,0
147055,123,N,0
147055,135,T,0
147055,173,R,0
147055,174,K,0
147055,178,M,0
147055,211,K,0
147055,245,I,0
147056,3,V,1
147056,12,N,1
147056,14,R,1
147056,25,E,1
147056,29,G,1
147056,35,N,1
147056,37,S,1
147056,63,P,1
147056,67,S,1
147057,83,K,0
147057,122,E,0
147057,123,N,0
147057,135,T,0
147057,173,R,0
147057,174,K,0
147057,178,M,0
147057,211,K,0
147057,245,I,1
147058,8,stop,0
147058,19,Q,0
147058,35,D,0
147058,37,S,0
147058,41,K,0
147058,62,M,0
147058,63,P,0
147058,71,V,0
147058,82,I,0
147058,93,L,0
147059,20,R,0
147059,99,X,0
147059,123,E,0
147059,166,R,0
147059,245,K,0
147059,250,E,0
147060,8,stop,1
147060,19,Q,0
147060,35,D,0
147060,37,S,0
147060,41,K,0
147060,62,M,0
147060,63,P,0
147060,71,V,0
147060,82,I,0
147060,93,L,0
147061,20,R,0
147061,123,E,0
147061,166,R,0
147061,245,K,0
147061,250,E,0
147062,37,S,1
147062,57,K,0
147062,60,E,0
147062,64,V,0
147062,77,I,0
147063,122,E,0
147063,211,K,0
147064,36,I,0
147064,37,D,0
147064,59,F,0
147064,62,V,0
147064,63,C,0
147064,72,V,0
147064,93,L,0
147065,53,H,0
147065,121,Y,0
147065,122,E,0
147065,162,C,0
147066,36,I,0
147066,37,D,0
147066,59,F,0
147066,62,V,0
147066,63,C,0
147066,72,V,0
147066,93,L,0
147067,53,H,1
147067,121,Y,0
147067,122,E,0
147067,162,C,0
147068,15,V,0
147068,36,I,0
147068,41,K,0
147068,46,L,0
147068,63,T,1
147068,77,I,0
147069,20,R,0
147069,32,R,1
147069,35,I,0
147069,60,I,0
147069,83,K,0
147069,135,T,0
147069,195,L,0
147069,245,E,0
147069,249,Q,0
147070,3,V,1
147070,15,V,0
147070,36,I,0
147070,41,K,0
147070,46,L,1
147070,63,X,1
147070,77,I,1
147071,20,R,1
147071,35,I,1
147071,60,I,0
147071,83,K,0
147071,135,T,0
147071,195,L,0
147071,245,E,1
147071,249,Q,1
147072,18,H,0
147072,35,D,0
147072,63,P,0
147072,93,L,0
147073,26,F,1
147073,113,N,1
147073,162,C,0
147073,178,M,0
147073,211,N,0
147074,62,V,0
147074,63,P,0
147074,71,V,0
147074,77,I,0
147074,79,S,0
147074,93,L,0
147075,122,E,0
147075,196,E,0
147075,204,R,1
147075,207,E,0
147075,245,E,0
147076,62,V,0
147076,63,P,0
147076,71,V,0
147076,77,I,0
147076,79,S,0
147076,93,L,0
147077,122,E,0
147077,196,E,0
147077,204,K,1
147077,207,E,0
147077,245,E,0
147078,2,K,0
147078,5,V,0
147078,6,S,0
147078,13,M,0
147078,25,N,0
147078,29,G,0
147078,37,T,0
147078,54,L,0
147078,58,R,0
147078,59,F,0
147078,60,V,0
147078,63,P,0
147078,66,V,0
147078,78,E,1
147078,84,M,0
147078,88,S,0
147078,92,R,0
147078,93,L,0
147079,22,P,0
147079,23,P,0
147079,32,Q,0
147079,67,N,0
147079,113,H,0
147079,139,I,0
147079,153,C,0
147079,154,Q,1
147079,180,M,0
147079,182,stop,0
147079,189,I,0
147079,196,K,0
147079,207,E,0
147079,211,S,0
147079,217,Q,0
147079,223,I,0
147079,243,L,0
147079,247,L,0
147079,248,D,0
147080,2,stop,1
147080,3,V,1
147080,5,V,1
147080,6,S,1
147080,13,M,1
147080,25,N,1
147080,29,G,1
147080,37,T,1
147080,54,L,1
147080,58,R,1
147080,59,F,1
147080,60,V,1
147080,63,P,1
147080,66,V,1
147080,84,M,1
147080,88,S,1
147080,92,R,1
147080,93,L,1
147081,22,X,1
147081,23,P,1
147081,32,Q,1
147081,67,N,1
147081,113,H,0
147081,139,I,0
147081,153,C,1
147081,180,M,0
147081,189,I,0
147081,196,K,0
147081,207,E,0
147081,211,S,0
147081,217,Q,0
147081,223,I,1
147081,243,L,0
147081,247,L,1
147081,248,D,0
147082,12,N,0
147082,14,R,0
147082,35,D,0
147082,37,D,0
147082,63,P,0
147082,67,S,0
147083,83,K,0
147083,122,E,0
147083,123,N,0
147083,135,T,0
147083,162,C,0
147083,173,R,0
147083,174,K,0
147083,178,M,0
147083,200,I,0
147083,211,K,0
147084,12,N,0
147084,14,R,0
147084,35,D,0
147084,37,D,0
147084,63,P,0
147084,67,S,0
147085,83,K,0
147085,122,E,0
147085,123,N,0
147085,135,T,0
147085,162,C,0
147085,173,R,0
147085,174,K,0
147085,178,M,0
147085,200,I,0
147085,211,K,0
147086,33,V,0
147086,37,S,0
147086,39,S,0
147086,41,K,0
147086,48,R,0
147086,60,E,0
147086,63,P,0
147086,64,V,0
147087,6,D,0
147087,26,F,0
147087,57,K,0
147087,86,E,0
147087,113,Y,0
147087,122,P,0
147087,123,E,0
147087,162,Y,0
147087,207,E,0
147088,33,V,0
147088,37,S,0
147088,39,S,0
147088,41,K,0
147088,48,R,0
147088,60,E,1
147088,63,P,1
147088,64,V,0
147089,6,D,0
147089,26,F,0
147089,57,K,0
147089,86,E,0
147089,113,Y,0
147089,122,P,0
147089,123,E,0
147089,162,Y,0
147089,207,E,0
147090,7,R,1
147090,21,D,1
147090,35,D,0
147090,36,I,0
147090,37,D,0
147090,60,A,0
147090,62,V,0
147090,63,P,0
147090,93,L,0
147091,53,stop,0
147091,113,Y,0
147091,162,C,0
147091,200,A,0
147091,245,E,0
147092,2,K,0
147092,15,V,0
147092,37,L,1
147092,59,S,0
147092,68,stop,1
147092,86,R,1
147093,64,R,0
147093,113,Y,0
147093,122,V,0
147093,135,V,0
147093,165,I,0
147094,2,K,1
147094,15,V,0
147094,37,L,1
147094,59,S,1
147095,64,R,0
147095,113,Y,0
147095,122,V,0
147095,135,V,0
147095,165,I,0
147096,5,I,1
147096,14,R,0
147096,42,C,0
147096,61,E,0
147096,62,V,0
147096,63,P,0
147096,77,I,0
147096,91,K,0
147096,93,L,0
147097,113,N,0
147097,178,M,0
147097,192,Y,1
147097,211,K,0
147097,245,K,0
147097,251,N,0
147098,14,R,0
147098,42,C,0
147098,61,E,0
147098,62,V,0
147098,63,P,0
147098,77,I,0
147098,91,K,1
147098,93,L,0
147099,113,N,0
147099,178,M,0
147099,211,K,0
147099,245,K,0
147099,251,N,1
147100,10,V,0
147100,12,P,0
147100,15,V,0
147100,24,stop,0
147100,36,I,0
147100,37,S,0
147100,63,T,0
147100,72,K,0
147101,211,K,0
147102,10,V,0
147102,12,P,0
147102,15,V,0
147102,36,I,0
147102,37,S,0
147102,63,T,0
147102,72,K,0
147103,211,K,0
147104,36,I,0
147104,47,M,0
147104,61,K,0
147104,64,V,0
147105,102,Q,0
147105,135,T,0
147105,162,C,0
147105,211,K,0
147105,245,M,0
147106,12,P,0
147106,14,R,0
147106,37,T,0
147106,57,K,0
147106,62,V,0
147106,63,P,0
147106,93,L,0
147107,26,F,1
147107,60,I,0
147107,135,T,0
147107,207,R,0
147107,210,W,0
147107,211,K,0
147107,245,M,0
147108,2,K,0
147108,15,V,0
147108,41,K,0
147108,63,T,0
147108,77,I,0
147108,93,L,0
147109,20,R,0
147109,28,K,0
147109,35,I,0
147109,83,K,0
147109,135,T,0
147109,245,E,0
147109,250,E,1
147110,2,K,0
147110,15,V,0
147110,41,K,0
147110,63,T,0
147110,77,I,0
147110,93,L,0
147111,20,R,0
147111,28,K,0
147111,35,I,0
147111,83,K,0
147111,135,T,0
147111,245,E,1
147112,37,D,0
147112,63,P,0
147112,71,T,0
147112,77,I,0
147112,93,L,0
147113,123,E,0
147113,162,C,0
147113,173,R,0
147113,177,E,0
147113,196,E,0
147113,207,S,0
147113,211,K,0
147114,15,V,0
147114,41,K,0
147114,63,T,0
147114,77,I,0
147115,20,R,0
147115,35,I,0
147115,60,I,0
147115,83,K,0
147115,135,T,0
147115,195,L,0
147115,245,E,0
147116,35,D,0
147116,36,I,0
147116,37,D,0
147116,63,P,0
147116,71,T,0
147116,77,I,0
147116,93,L,0
147117,20,R,0
147117,98,S,0
147117,123,E,0
147117,165,I,0
147117,169,D,0
147117,174,K,0
147117,196,E,0
147117,200,A,0
147117,202,V,0
147117,211,K,0
147117,214,L,0
147118,15,V,0
147118,36,I,0
147118,41,K,0
147118,69,K,0
147118,82,I,0
147118,89,M,0
147118,93,L,0
147119,35,T,0
147119,36,A,0
147119,39,E,0
147119,43,R,0
147119,122,E,0
147119,123,S,0
147119,158,S,0
147119,173,A,0
147119,174,R,0
147119,177,E,0
147119,178,M,0
147119,200,A,0
147119,207,E,0
147119,243,S,0
147119,245,Q,0
147120,35,D,0
147120,37,D,0
147120,63,P,0
147120,64,L,0
147121,69,S,0
147121,162,C,0
147121,211,K,0
147122,15,V,0
147122,35,D,0
147122,36,I,0
147122,41,K,0
147122,63,C,0
147122,93,L,0
147123,123,E,0
147123,135,T,0
147123,162,C,0
147124,15,V,0
147124,35,T,0
147124,36,I,0
147124,41,K,0
147124,62,V,0
147124,63,P,0
147125,64,R,0
147125,135,T,0
147125,200,A,0
147125,214,L,0
147125,248,D,0
147126,36,I,0
147126,62,V,0
147126,63,H,0
147127,23,X,1
147127,122,E,0
147127,211,K,0
147127,214,L,0
147127,248,D,0
147128,37,S,0
147128,63,C,0
147128,92,K,0
147129,6,D,0
147129,135,T,0
147129,162,C,0
147130,63,P,0
147130,69,Q,1
147131,179,I,0
147131,200,A,0
147131,211,K,0
147132,15,V,0
147132,57,K,0
147132,60,E,0
147132,61,E,0
147132,63,P,0
147133,35,T,0
147133,98,S,0
147133,122,E,0
147133,135,T,0
147133,211,K,0
147134,35,D,0
147134,36,I,0
147134,37,D,0
147134,62,V,0
147134,63,P,0
147134,93,L,0
147135,162,C,0
147135,200,A,0
147135,203,G,0
147135,245,E,0
147136,13,V,0
147136,37,S,0
147136,64,V,0
147136,93,L,0
147137,135,T,0
147137,162,C,0
147137,245,K,0
147138,3,V,1
147138,36,I,0
147138,37,S,0
147138,63,P,0
147138,69,Q,0
147138,70,R,0
147139,24,C,0
147139,26,S,0
147139,27,K,0
147139,35,I,0
147139,83,K,0
147139,135,T,0
147139,162,N,1
147139,166,R,0
147139,202,V,0
147139,211,K,0
147139,245,Q,0
147140,33,I,0
147140,37,T,0
147140,63,P,0
147140,93,L,0
147141,47,M,0
147141,69,S,0
147141,196,K,0
147141,207,A,0
147141,214,L,0
147142,35,D,0
147142,37,D,0
147142,63,P,0
147142,71,T,0
147142,77,I,0
147142,93,L,0
147143,123,E,0
147143,162,C,0
147143,173,R,0
147143,196,E,0
147143,207,A,0
147143,211,K,0
147144,14,R,0
147144,36,I,0
147144,57,K,0
147144,64,V,0
147144,72,V,0
147145,102,Q,0
147145,121,Y,0
147145,122,E,0
147145,135,T,0
147145,162,C,0
147145,211,K,0
147145,245,I,0
147146,12,S,0
147146,15,V,0
147146,19,I,0
147146,36,I,0
147146,41,K,0
147146,55,R,0
147146,63,P,0
147146,69,K,0
147146,89,M,0
147146,93,L,0
147147,35,T,0
147147,36,A,0
147147,39,E,0
147147,50,M,1
147147,98,S,0
147147,122,E,0
147147,123,S,0
147147,173,A,0
147147,177,E,0
147147,200,A,0
147147,207,E,0
147147,245,Q,0
147148,15,V,0
147148,35,T,0
147148,36,I,0
147148,41,K,0
147148,62,V,0
147148,63,P,0
147149,64,R,0
147149,135,T,0
147149,200,A,0
147149,214,L,0
147149,248,D,0
147150,36,I,0
147150,37,D,0
147150,62,V,0
147150,63,C,0
147150,68,E,0
147150,71,V,0
147150,77,I,0
147150,93,L,0
147151,53,D,0
147151,121,Y,0
147151,122,E,0
147151,162,C,0
147152,10,V,0
147152,37,S,0
147152,62,V,0
147152,63,P,0
147152,93,L,0
147153,14,T,0
147153,35,I,0
147153,102,M,1
147153,142,N,0
147153,162,C,0
147153,200,I,0
147153,245,M,1
147154,12,S,0
147154,14,stop,1
147154,20,E,0
147154,21,V,0
147154,36,I,0
147154,41,K,0
147154,43,N,0
147154,63,P,0
147154,69,K,0
147154,89,M,0
147154,93,L,0
147154,95,stop,1
147154,97,T,0
147154,98,K,0
147155,5,V,1
147155,6,K,1
147155,23,R,0
147155,35,Q,0
147155,39,K,0
147155,98,S,0
147155,122,E,0
147155,123,S,0
147155,158,S,0
147155,173,A,0
147155,177,E,0
147155,200,A,0
147155,207,E,0
147155,245,Q,0
147156,2,L,0
147156,13,V,0
147156,35,D,0
147156,36,I,0
147156,41,K,0
147156,69,K,0
147156,89,M,0
147156,90,F,0
147157,6,D,0
147157,11,T,0
147157,21,I,0
147157,26,F,1
147157,35,T,0
147157,39,N,0
147157,60,I,0
147157,122,E,0
147157,123,S,0
147157,173,I,0
147157,174,K,0
147157,177,E,0
147157,200,I,0
147157,207,N,0
147157,211,S,0
147157,238,R,0
147157,245,E,0
147158,13,V,0
147158,63,P,0
147158,93,L,0
147159,28,G,0
147159,35,I,0
147159,53,D,0
147159,100,stop,0
147159,122,E,0
147159,135,T,0
147159,162,C,0
147159,194,D,0
147159,196,E,0
147159,200,A,0
147159,207,E,0
147159,211,K,0
147160,37,C,0
147160,57,K,0
147160,60,E,0
147160,64,V,0
147160,77,I,0
147161,122,E,0
147161,211,K,0
147162,36,I,0
147162,37,D,0
147162,62,V,0
147162,63,C,0
147162,71,V,1
147162,93,L,0
147163,53,D,0
147163,121,Y,0
147163,122,E,0
147163,162,C,0
147164,10,V,0
147164,15,V,0
147164,36,I,0
147164,37,S,0
147164,63,T,0
147164,72,T,0
147165,211,K,0
147165,248,D,0
147166,14,R,0
147166,20,R,0
147166,41,K,0
147166,46,I,0
147166,70,R,0
147167,35,I,0
147167,83,K,0
147167,101,R,0
147167,123,E,0
147167,135,T,0
147167,162,C,0
147167,186,N,0
147167,200,I,0
147168,18,H,0
147168,26,R,0
147168,58,E,0
147168,63,P,0
147168,93,L,0
147169,24,stop,0
147169,26,I,0
147169,162,C,0
147169,178,M,0
147169,211,N,0
147170,3,V,1
147170,35,D,1
147170,36,I,1
147170,37,S,1
147170,45,R,1
147170,62,V,1
147170,63,P,1
147170,64,V,1
147170,93,L,1
147171,35,I,1
147171,122,P,0
147171,135,T,0
147171,162,C,0
147171,200,A,1
147171,207,E,0
147171,214,L,0
147172,13,V,0
147172,15,L,0
147172,19,Q,0
147172,20,I,0
147172,21,T,0
147172,36,I,0
147172,41,K,0
147172,69,K,0
147172,82,I,0
147172,89,M,0
147173,6,D,0
147173,8,I,0
147173,11,T,0
147173,20,R,0
147173,35,T,0
147173,39,K,0
147173,43,E,0
147173,68,G,0
147173,122,E,0
147173,123,N,0
147173,135,T,0
147173,165,I,0
147173,173,I,0
147173,174,K,0
147173,177,E,0
147173,178,M,0
147173,200,A,0
147173,207,A,0
147173,211,S,0
147173,245,E,0
147174,36,I,0
147174,64,V,0
147175,102,Q,0
147175,135,T,0
147175,162,C,0
147175,197,Y,0
147175,211,K,0
147175,245,M,0
147176,37,S,0
147176,38,M,0
147176,58,E,1
147176,62,V,0
147176,63,H,0
147177,19,A,0
147177,122,E,0
147177,123,E,0
147177,132,V,0
147177,177,E,0
147177,200,A,0
147177,211,G,0
147178,12,K,0
147178,15,V,0
147178,36,I,0
147178,37,D,0
147178,63,C,0
147178,93,L,0
147179,34,V,1
147179,135,T,0
147179,162,C,0
147179,211,G,0
147179,233,D,0
147179,234,I,0
147180,35,D,0
147180,36,I,0
147180,37,D,0
147180,62,V,0
147180,63,P,0
147180,93,L,0
147181,162,C,0
147181,200,A,0
147181,245,E,0
147182,35,D,0
147182,45,R,0
147182,63,P,0
147182,77,I,0
147182,93,L,0
147183,102,R,0
147183,162,C,0
147183,173,E,0
147183,178,M,0
147183,207,H,1
147183,211,K,0
147184,19,V,0
147184,35,D,0
147184,37,S,0
147184,38,V,0
147184,57,K,0
147184,63,P,0
147185,90,I,0
147185,171,Y,0
147185,174,K,0
147185,211,K,0
147185,245,M,0
147186,12,K,0
147186,14,R,1
147186,15,V,0
147186,35,D,0
147186,37,E,0
147186,93,L,0
147187,49,R,1
147187,64,R,0
147187,106,I,0
147187,135,T,0
147187,211,K,0
147187,214,L,0
147188,12,P,0
147188,14,R,0
147188,37,D,0
147188,63,P,0
147188,77,I,0
147188,93,L,0
147189,122,E,0
147189,123,N,0
147189,135,T,0
147189,169,D,0
147189,174,K,0
147189,196,E,0
147189,200,A,0
147189,202,V,1
147189,203,D,0
147189,207,E,0
147189,214,L,0
147190,35,D,0
147190,36,I,0
147190,37,D,0
147190,62,V,0
147190,63,P,0
147190,93,L,0
147191,162,C,0
147191,200,A,0
147191,245,E,0
147192,10,V,0
147192,12,P,0
147192,15,V,0
147192,36,I,0
147192,37,S,0
147192,63,T,0
147192,72,T,0
147193,211,K,0
147193,248,D,0
147194,64,V,0
147194,69,Q,0
147194,77,I,0
147195,11,R,0
147195,20,R,0
147195,44,D,0
147195,83,K,0
147195,142,T,0
147195,211,K,0
147195,245,E,0
147196,13,V,0
147196,36,I,0
147196,63,P,0
147197,122,A,0
147197,142,T,0
147197,177,E,0
147197,178,M,0
147197,211,T,0
147197,245,T,0
147198,35,D,0
147198,37,D,0
147198,58,K,1
147198,63,P,0
147198,64,L,0
147199,69,S,0
147199,162,C,0
147199,211,K,0
147200,36,I,0
147200,37,D,0
147200,39,S,0
147200,62,V,0
147200,63,C,0
147200,72,V,0
147200,93,L,0
147201,121,Y,0
147201,122,E,0
147201,162,C,0
147202,35,D,0
147202,37,D,0
147202,63,P,0
147202,64,L,0
147203,69,S,0
147203,162,C,0
147203,211,K,0
147204,13,V,0
147204,41,K,0
147204,63,P,0
147204,70,R,0
147204,72,V,0
147204,92,K,0
147205,35,I,0
147205,102,R,0
147205,123,E,0
147205,177,E,0
147205,211,K,0
147206,12,S,0
147206,15,V,0
147206,19,I,0
147206,36,I,0
147206,41,K,0
147206,61,K,0
147206,69,K,0
147206,89,M,0
147206,93,L,0
147207,35,T,0
147207,36,A,0
147207,39,E,0
147207,48,T,0
147207,122,E,0
147207,123,S,0
147207,135,T,0
147207,173,Q,0
147207,177,E,0
147207,200,A,0
147207,207,E,0
147207,245,T,0
147208,35,D,0
147208,36,I,0
147208,37,D,0
147208,63,P,0
147208,82,I,0
147208,93,L,0
147209,123,E,0
147209,142,T,0
147209,169,D,0
147209,177,E,0
147209,200,A,0
147209,211,K,0
147210,5,V,0
147210,7,E,0
147210,15,V,0
147210,19,I,1
147210,22,V,1
147210,28,G,1
147210,31,K,1
147210,36,I,0
147210,51,R,1
147210,62,V,0
147210,63,C,0
147210,90,F,0
147211,32,R,0
147211,121,Y,0
147211,122,E,0
147211,123,N,0
147211,162,C,0
147211,204,G,0
147212,63,A,0
147212,64,V,0
147213,6,D,0
147213,87,L,0
147213,162,C,0
147213,200,V,0
147213,205,M,1
147213,211,K,0
147214,11,L,0
147214,15,V,0
147214,35,D,0
147214,36,I,0
147215,46,P,0
147215,53,Q,0
147215,196,E,0
147215,214,L,0
147216,36,I,0
147216,63,C,0
147217,123,E,0
147217,162,C,0
147217,177,E,0
147217,224,D,0
147218,14,R,0
147218,35,D,0
147218,37,D,0
147219,22,R,0
147219,118,I,0
147219,122,E,0
147219,135,T,0
147219,165,I,0
147219,211,K,0
147219,214,L,0
147220,35,D,0
147220,37,D,0
147220,63,P,0
147220,64,L,0
147221,69,S,0
147221,70,R,0
147221,162,C,0
147221,211,K,0
147222,35,D,0
147222,37,S,0
147222,41,K,0
147222,57,K,0
147222,63,C,0
147222,64,V,0
147222,77,I,0
147223,49,R,0
147223,98,S,0
147223,162,C,0
147224,15,V,0
147224,35,D,0
147224,37,D,0
147224,62,V,0
147224,63,P,0
147224,72,M,0
147225,135,T,0
147225,162,C,0
147225,211,K,0
147225,248,stop,1
147226,35,D,0
147226,39,Q,0
147226,60,E,0
147226,63,P,0
147227,122,E,0
147227,123,S,0
147227,135,T,0
147227,162,C,0
147227,211,K,0
147228,15,V,0
147228,35,D,0
147228,41,K,0
147228,63,P,0
147228,93,L,0
147229,35,I,0
147229,86,G,0
147229,135,T,0
147229,169,D,0
147229,196,E,0
147229,200,A,0
147229,211,T,0
147229,214,L,0
147230,10,I,0
147230,13,V,0
147230,15,V,0
147230,41,K,0
147230,63,N,0
147230,64,V,0
147230,93,L,0
147231,123,E,0
147231,135,T,0
147231,142,V,0
147231,165,I,0
147231,196,E,0
147232,57,K,0
147232,63,P,0
147232,67,S,0
147232,93,L,0
147233,12,F,1
147233,40,D,1
147233,41,L,1
147233,43,T,1
147233,44,Q,1
147233,123,E,0
147233,135,T,0
147233,162,Y,0
147233,177,E,0
147233,195,L,0
147234,6,R,0
147234,64,V,0
147235,26,S,0
147235,60,I,0
147235,94,T,0
147235,102,Q,0
147235,123,E,0
147235,135,T,0
147235,162,Y,0
147235,177,E,0
147235,195,L,0
147236,12,S,0
147237,60,I,0
147237,135,V,0
147237,178,M,0
147237,200,A,0
147237,211,K,0
147238,35,D,0
147238,36,I,0
147238,57,K,0
147238,62,V,0
147238,63,P,0
147238,67,S,0
147239,20,Q,0
147239,123,E,0
147239,211,K,0
147239,245,E,0
147240,10,I,0
147240,13,V,0
147240,63,P,0
147240,67,Y,0
147241,35,I,0
147241,177,E,0
147241,178,M,0
147241,245,E,0
147242,12,S,0
147242,15,V,0
147242,19,I,0
147242,36,I,0
147242,41,K,0
147242,63,V,0
147242,69,K,0
147242,74,S,0
147242,89,M,0
147242,93,L,0
147243,20,R,0
147243,35,T,0
147243,36,A,0
147243,39,E,0
147243,40,D,0
147243,48,T,0
147243,122,E,0
147243,123,N,0
147243,173,A,0
147243,174,K,0
147243,200,A,0
147243,207,E,0
147243,211,K,0
147243,245,Q,0
147243,248,D,0
147243,250,E,0
147243,251,C,0
147244,36,I,0
147244,37,D,0
147244,41,K,0
147244,43,R,0
147244,63,P,0
147244,69,Y,0
147244,72,V,0
147244,92,K,0
147245,16,V,1
147245,122,E,0
147245,174,R,0
147245,178,M,0
147245,207,E,0
147245,211,K,0
147246,35,D,0
147246,37,S,0
147246,41,K,0
147246,63,P,0
147246,77,I,0
147246,93,L,0
147247,102,Q,0
147247,118,I,0
147247,122,E,0
147247,174,G,0
147247,177,E,0
147247,200,A,0
147247,207,R,0
147247,211,Q,0
147247,214,L,0
147247,245,I,0
147248,63,S,0
147248,71,V,0
147248,72,T,0
147248,77,I,0
147248,93,L,0
147249,35,T,0
147249,48,T,0
147249,69,N,0
147249,123,E,0
147249,178,M,0
147249,196,E,0
147249,207,L,0
147249,211,K,0
147250,19,I,0
147250,63,C,0
147250,69,Q,0
147250,82,I,0
147251,6,D,0
147251,41,L,0
147251,123,E,0
147251,173,E,0
147251,178,M,0
147251,192,N,0
147251,208,Y,0
147251,210,W,0
147251,211,K,0
147251,215,D,0
147252,33,I,0
147252,37,S,0
147252,39,S,0
147252,63,P,0
147252,69,Y,0
147252,71,T,0
147252,77,I,0
147252,93,L,0
147253,11,R,0
147253,162,C,0
147253,178,L,0
147253,204,K,0
147253,207,E,0
147254,18,H,0
147254,35,D,0
147254,41,K,0
147254,63,P,0
147254,93,L,0
147255,35,I,0
147255,135,K,0
147255,162,C,0
147255,211,K,0
147255,242,E,1
147256,35,D,0
147256,63,P,0
147257,40,D,0
147257,41,L,0
147257,60,I,0
147257,123,E,0
147257,158,S,0
147257,200,K,0
147257,215,S,0
147257,245,M,0
147258,63,P,0
147259,122,E,0
147259,123,S,0
147259,142,S,0
147259,197,E,0
147259,200,A,0
147259,207,E,0
147259,238,R,0
147259,245,M,0
147260,15,V,0
147260,37,C,0
147260,63,P,0
147261,20,R,0
147261,64,R,0
147261,122,E,0
147261,211,K,0
147262,12,S,0
147262,13,V,0
147262,36,I,0
147262,57,K,0
147262,63,P,0
147262,64,V,0
147263,35,I,0
147263,122,E,0
147263,123,G,0
147263,135,M,0
147263,179,I,0
147263,200,I,0
147263,250,E,0
147264,35,D,0
147264,63,P,0
147264,93,L,0
147265,100,W,0
147265,135,V,0
147265,162,C,0
147265,200,I,0
147266,19,Q,0
147266,63,P,0
147267,31,R,0
147267,35,I,0
147267,135,A,0
147267,186,E,1
147267,211,K,1
147267,245,R,0
147267,248,D,0
147268,13,V,0
147268,36,I,0
147268,41,K,0
147268,62,V,0
147268,63,P,0
147268,93,L,0
147269,135,V,0
147269,211,K,0
147269,245,R,0
147269,248,D,0
147270,19,Q,0
147270,63,P,0
147271,27,S,0
147271,31,R,0
147271,35,I,0
147271,122,E,0
147271,135,T,0
147271,228,R,0
147271,245,E,0
147271,249,X,1
147272,36,I,0
147272,62,V,0
147272,63,C,0
147273,162,C,0
147274,63,C,0
147274,77,I,0
147274,93,L,0
147275,102,R,0
147275,106,I,0
147275,107,S,0
147275,135,T,0
147275,162,Y,0
147275,174,E,0
147275,179,I,0
147275,196,E,0
147275,211,G,0
147275,244,V,0
147276,4,S,0
147276,19,I,0
147276,63,H,0
147276,69,Q,0
147276,70,E,0
147276,71,T,0
147276,77,I,0
147276,93,L,0
147277,6,D,0
147277,123,E,0
147277,176,S,0
147277,178,M,0
147278,14,R,0
147278,15,V,0
147278,19,I,0
147278,35,D,0
147278,37,D,0
147279,211,K,0
147279,245,Q,0
147280,12,S,0
147280,15,V,0
147280,19,V,0
147280,36,I,0
147280,41,K,0
147280,61,K,1
147280,69,K,0
147280,93,L,0
147281,6,D,0
147281,35,T,0
147281,39,E,0
147281,48,T,0
147281,60,I,0
147281,90,I,0
147281,108,G,0
147281,122,E,0
147281,123,G,0
147281,173,A,0
147281,174,R,0
147281,177,E,0
147281,178,M,1
147281,200,A,0
147281,207,E,0
147281,211,K,0
147281,245,Q,0
147282,35,D,0
147282,41,K,0
147282,63,P,0
147282,77,I,0
147282,93,L,0
147283,118,I,0
147283,122,E,0
147283,142,M,0
147283,174,R,0
147283,177,E,0
147283,200,A,0
147283,207,G,0
147283,211,E,0
147283,214,L,0
147283,245,L,0
147284,12,P,0
147284,14,R,0
147284,16,E,0
147284,35,D,0
147284,37,C,0
147284,39,S,0
147284,41,K,0
147284,57,K,0
147284,62,V,0
147284,63,P,0
147284,71,T,0
147284,93,L,0
147285,98,S,0
147285,135,V,0
147285,166,R,0
147285,207,H,0
147285,211,K,0
147285,245,N,0
147286,12,S,0
147286,14,R,1
147286,33,V,0
147286,62,V,0
147286,63,P,0
147286,64,V,0
147286,69,Y,0
147286,72,M,0
147287,27,S,0
147287,35,I,0
147287,83,K,0
147287,135,T,0
147287,138,A,0
147287,214,L,0
147287,228,R,1
147287,252,stop,1
147288,10,I,0
147288,41,K,0
147288,62,V,0
147288,63,S,0
147288,93,L,0
147289,123,E,0
147289,179,I,0
147289,207,E,0
147290,63,P,0
147290,77,I,0
147290,93,L,0
147291,122,E,0
147291,123,E,0
147291,177,E,0
147291,178,M,0
147291,207,E,0
147291,245,M,0
147292,18,H,0
147292,35,D,0
147292,41,K,0
147292,63,P,0
147292,71,T,0
147292,93,L,0
147293,35,I,0
147293,101,R,0
147293,135,R,0
147293,162,C,0
147293,211,K,0
147293,241,I,0
147294,14,R,0
147294,35,D,0
147294,37,D,0
147294,57,K,0
147294,62,V,0
147294,63,S,0
147294,82,I,0
147294,93,L,0
147295,135,T,0
147295,142,T,0
147295,162,H,0
147295,211,G,0
147295,245,E,0
147296,15,V,1
147296,35,N,1
147296,36,I,1
147296,37,D,1
147296,63,P,0
147296,93,L,1
147297,123,E,1
147297,132,V,1
147297,135,T,1
147297,142,T,1
147297,162,C,1
147297,169,D,1
147297,173,R,1
147297,200,V,1
147297,211,Q,1
147297,215,S,1
147298,18,H,0
147298,35,D,0
147298,37,T,1
147298,62,V,1
147298,63,S,1
147298,64,V,1
147298,65,D,1
147298,71,V,1
147298,72,V,1
147298,93,L,1
147299,20,R,1
147299,47,V,1
147299,135,T,1
147299,138,A,1
147299,162,C,1
147299,211,K,1
147300,56,S,1
147300,62,P,1
147300,123,E,0
147300,135,T,0
147300,162,C,0
147300,224,D,0
147301,12,S,0
147301,13,V,0
147301,15,V,0
147301,19,I,0
147301,36,I,0
147301,41,K,0
147301,63,V,0
147301,64,M,0
147301,69,K,0
147301,89,M,0
147301,93,L,0
147302,35,T,0
147302,36,A,0
147302,39,E,0
147302,48,T,0
147302,93,A,1
147302,122,E,0
147302,123,S,0
147302,135,T,0
147302,158,S,0
147302,173,A,0
147302,177,G,0
147302,200,A,0
147302,207,E,0
147302,245,Q,0
147302,250,E,0
147303,13,V,0
147303,20,R,0
147303,36,I,0
147303,41,K,0
147303,62,V,0
147303,63,P,0
147303,93,L,0
147304,135,V,0
147304,211,K,0
147304,245,R,0
147304,248,D,0
147305,15,V,0
147305,36,I,0
147305,41,K,0
147305,63,C,0
147305,77,I,0
147305,93,L,0
147306,123,E,0
147306,135,T,0
147306,162,C,0
147306,179,I,0
147307,15,V,0
147307,64,V,0
147308,8,I,0
147308,135,T,0
147308,162,C,0
147308,207,E,0
147309,10,I,0
147309,37,S,0
147309,62,V,0
147309,63,P,0
147309,82,I,0
147309,93,L,0
147309,94,H,0
147310,20,R,0
147310,32,R,0
147310,49,R,0
147310,122,E,0
147310,123,G,0
147310,207,E,0
147311,41,K,0
147311,63,C,0
147311,71,V,0
147311,93,L,0
147312,99,X,0
147312,102,R,0
147312,106,I,0
147312,107,S,0
147312,122,Q,0
147312,162,Y,0
147312,174,K,0
147312,178,M,0
147312,179,I,0
147312,196,E,0
147312,211,G,0
147312,248,D,1
147313,36,I,0
147313,37,E,0
147313,62,V,0
147313,63,P,0
147313,69,Y,0
147313,93,L,0
147314,39,A,0
147314,41,L,0
147314,83,X,0
147314,101,R,0
147314,122,P,0
147314,162,C,0
147314,204,G,1
147314,207,E,0
147314,210,W,0
147314,211,K,0
147314,215,S,0
147314,241,I,0
147315,37,S,1
147315,62,V,0
147315,63,P,0
147315,93,L,0
147316,39,A,0
147316,83,K,0
147316,99,X,0
147316,123,E,0
147316,178,M,1
147316,210,F,0
147317,13,V,0
147317,33,I,0
147317,37,S,0
147317,63,P,0
147317,65,D,0
147317,77,I,0
147318,35,I,0
147318,98,S,0
147318,135,T,0
147318,200,A,0
147318,211,K,0
147319,15,V,0
147319,41,K,0
147319,63,P,0
147319,77,I,0
147319,93,L,0
147320,35,I,0
147320,123,E,0
147320,162,C,0
147320,169,D,0
147320,178,L,0
147320,195,L,0
147320,200,A,0
147320,207,E,0
147320,211,K,0
147320,245,E,0
147321,12,E,0
147321,35,D,0
147321,62,V,0
147321,63,S,0
147321,93,L,0
147322,135,V,0
147322,142,T,0
147322,169,D,0
147322,200,A,0
147322,211,K,0
147322,214,L,0
147323,36,I,0
147323,62,V,0
147323,63,C,0
147323,93,L,0
147324,32,R,0
147324,103,R,0
147324,121,Y,0
147324,122,E,0
147324,123,G,0
147324,162,C,0
147325,33,I,0
147325,37,S,0
147325,39,S,0
147325,41,K,0
147325,60,E,0
147325,63,P,0
147325,71,T,0
147325,93,L,0
147326,6,D,0
147326,162,C,0
147326,173,R,0
147326,178,M,0
147326,194,D,0
147326,200,A,0
147326,245,E,0
147326,251,N,0
147327,122,E,0
147327,123,E,0
147327,135,T,0
147327,162,C,0
147327,211,K,0
147327,214,L,0
147328,19,I,0
147328,37,S,0
147328,41,K,0
147328,63,P,0
147328,77,I,0
147328,88,Y,1
147328,93,L,0
147329,6,D,0
147329,20,R,0
147329,31,T,1
147329,135,V,0
147329,162,C,0
147329,177,E,0
147329,200,I,0
147329,211,G,0
147330,13,V,0
147330,14,R,0
147330,16,E,0
147330,20,I,0
147330,35,D,0
147330,36,I,0
147330,41,K,0
147330,64,M,0
147330,69,K,0
147330,70,R,0
147330,89,M,0
147331,35,T,0
147331,40,D,0
147331,49,R,0
147331,121,Y,1
147331,135,T,0
147331,162,A,0
147331,173,D,0
147331,174,K,0
147331,177,E,0
147331,200,A,0
147331,207,A,0
147331,211,K,0
147331,245,Q,0
147331,250,E,0
147332,60,E,0
147332,63,P,1
147333,20,R,0
147333,123,E,0
147333,162,C,0
147333,177,E,0
147333,179,I,0
147333,200,A,0
147333,202,V,0
147333,204,G,0
147334,25,N,1
147334,57,K,0
147335,35,I,0
147335,44,D,1
147335,122,E,0
147335,123,N,0
147335,142,V,0
147335,165,I,1
147335,177,E,0
147335,210,F,1
147335,211,T,0
147335,245,M,0
147336,10,I,0
147336,14,R,0
147336,15,V,0
147336,35,D,0
147336,36,I,0
147336,63,P,0
147336,71,V,0
147336,84,V,0
147336,90,M,0
147336,93,L,0
147337,35,I,0
147337,39,S,0
147337,41,L,0
147337,69,N,0
147337,75,M,0
147337,77,L,0
147337,101,Q,0
147337,122,E,0
147337,123,E,0
147337,135,T,0
147337,173,E,0
147337,189,I,0
147337,190,S,0
147337,200,K,0
147337,207,E,0
147337,210,W,0
147337,215,Y,0
147337,245,Q,0
147338,15,V,0
147338,41,K,0
147338,63,P,0
147338,70,R,0
147338,93,L,0
147339,6,D,0
147339,35,T,0
147339,39,A,0
147339,64,R,0
147339,83,K,0
147339,99,X,0
147339,135,T,0
147339,245,E,0
147340,35,D,0
147340,37,S,0
147340,63,P,0
147341,53,D,0
147341,103,N,0
147341,123,E,0
147341,162,X,0
147341,166,R,0
147341,177,E,0
147341,211,K,0
147342,16,E,0
147343,83,K,0
147343,123,E,0
147343,135,V,0
147343,138,A,0
147343,162,C,0
147343,202,V,0
147343,211,K,0
147344,15,V,0
147344,37,S,0
147344,41,K,0
147344,63,A,0
147344,77,I,0
147344,93,L,0
147345,83,K,0
147345,98,S,0
147345,162,A,0
147345,200,A,0
147345,211,K,0
147345,238,S,0
147346,62,V,0
147346,63,P,0
147346,64,L,0
147346,77,I,0
147347,102,R,0
147347,123,E,0
147347,180,V,0
147347,207,E,0
147347,214,L,0
147348,10,I,0
147348,37,S,0
147348,41,K,0
147348,63,A,0
147348,93,L,0
147349,123,E,0
147349,135,T,0
147349,180,V,0
147349,207,A,0
147349,211,K,0
147349,245,K,0
147350,3,V,0
147350,10,I,0
147350,37,S,0
147350,63,C,0
147351,35,D,0
147351,37,S,0
147351,41,K,0
147351,63,P,0
147351,77,I,0
147351,93,L,0
147352,4,I,1
147352,37,S,0
147352,63,C,0
147352,91,I,0
147352,92,R,0
147352,95,Y,0
147353,12,A,0
147353,63,S,0
147353,71,V,0
147353,72,T,0
147353,77,I,0
147353,93,L,0
147354,13,V,0
147354,35,D,0
147354,37,S,0
147354,62,V,0
147354,63,P,0
147355,124,V,0
147355,178,M,0
147355,200,A,0
147355,211,K,0
147355,245,K,0
147356,10,I,0
147356,14,R,0
147356,19,Q,1
147356,63,P,0
147356,72,V,0
147356,93,L,0
147357,36,I,0
147357,62,V,0
147357,63,P,0
147357,77,I,0
147357,93,L,0
147358,56,H,0
147358,60,E,1
147358,70,N,0
147358,73,X,0
147358,83,K,0
147358,99,V,1
147358,100,S,0
147358,121,E,1
147358,135,T,0
147358,162,C,0
147358,171,V,1
147358,233,X,0
147358,248,X,0
147359,12,A,0
147359,14,R,1
147359,15,V,0
147359,35,D,0
147359,37,D,0
147359,63,P,0
147360,135,R,0
147360,162,C,0
147360,211,K,0
147360,244,V,0
147360,251,G,0
147361,12,P,0
147361,13,V,0
147361,33,V,0
147361,37,S,0
147361,39,S,0
147361,41,N,0
147361,60,E,0
147361,62,V,0
147361,64,V,0
147361,93,L,0
147362,35,I,0
147362,83,K,0
147362,123,E,0
147362,135,T,0
147362,177,E,0
147362,196,E,0
147362,211,K,0
147362,233,K,1
147363,36,I,0
147363,62,V,0
147364,160,S,0
147364,175,K,1
147364,183,H,1
147364,186,E,1
147364,187,S,1
147364,193,S,1
147364,200,A,1
147364,208,Q,0
147364,227,S,0
147364,228,H,0
147365,73,Q,1
147365,74,stop,1
147365,75,A,1
147365,76,E,1
147365,77,I,1
147365,79,V,1
147365,83,S,1
147365,103,N,0
147365,162,C,0
147365,211,K,0
147365,220,T,1
147366,71,M,0
147366,76,E,1
147366,83,K,0
147366,123,E,0
147366,177,E,0
147366,178,M,0
147366,207,K,0
147366,211,Q,0
147367,15,V,0
147367,36,I,0
147367,62,V,0
147367,63,P,0
147368,16,V,1
147368,35,I,0
147368,83,K,0
147369,12,A,0
147369,63,P,0
147369,93,L,0
147370,83,K,0
147370,137,X,1
147370,159,V,0
147370,166,R,0
147370,200,A,0
147370,228,R,1
147370,241,X,1
147370,244,L,1
147371,15,V,0
147371,35,D,0
147371,61,P,1
147371,63,P,0
147371,83,H,0
147371,92,P,1
147372,34,F,1
147372,41,L,0
147372,69,D,0
147372,83,K,0
147372,162,Y,0
147372,178,M,0
147372,200,A,0
147372,203,D,0
147372,211,K,0
147372,215,C,0
147373,35,D,0
147373,37,D,0
147373,63,P,0
147373,77,I,0
147373,93,L,0
147374,123,E,0
147374,135,T,0
147374,162,C,0
147374,211,K,0
147375,10,I,0
147375,13,V,0
147375,14,R,0
147375,15,V,0
147375,35,D,0
147375,36,I,0
147375,37,D,0
147375,41,K,0
147375,57,K,0
147375,61,E,0
147375,69,K,0
147375,89,M,0
147376,11,E,0
147376,35,T,0
147376,60,I,0
147376,121,H,0
147376,122,E,0
147376,123,S,0
147376,135,T,0
147376,165,I,0
147376,173,S,0
147376,174,K,0
147376,177,E,0
147376,179,I,0
147376,200,A,0
147376,207,A,0
147376,211,S,0
147376,250,E,0
147377,10,V,0
147377,13,V,0
147377,41,K,0
147377,63,S,0
147378,142,T,0
147378,200,A,0
147378,211,G,0
147379,63,F,0
147379,77,I,0
147379,93,L,0
147380,106,I,0
147380,107,S,0
147380,122,E,0
147380,123,A,0
147380,162,Y,0
147380,174,E,0
147380,179,I,0
147380,196,E,0
147380,211,G,0
147381,15,V,0
147381,35,D,1
147381,37,S,0
147381,41,K,0
147381,63,A,0
147382,211,K,0
147382,245,K,0
147382,247,L,0
147383,35,D,0
147383,36,I,0
147383,37,D,0
147383,63,P,0
147383,93,L,0
147384,142,T,0
147384,169,D,0
147384,200,A,0
147384,211,Q,0
147385,10,I,0
147385,35,D,0
147385,37,D,0
147385,57,K,0
147385,63,P,0
147385,64,L,0
147385,77,I,0
147385,93,L,0
147386,11,R,0
147386,162,C,0
147386,211,K,0
147386,214,L,0
147387,13,T,0
147387,15,T,0
147387,16,E,0
147387,24,S,0
147387,33,S,0
147387,35,D,0
147387,36,T,0
147387,37,H,1
147387,43,N,1
147387,53,L,0
147387,59,H,0
147387,63,R,0
147387,64,T,0
147387,76,S,0
147387,84,T,0
147387,97,P,0
147388,10,A,0
147388,12,S,0
147388,29,D,1
147388,50,T,1
147388,53,Q,1
147388,102,M,0
147388,135,T,0
147388,162,C,0
147388,200,A,0
147388,211,K,0
147389,13,V,0
147389,63,S,0
147390,60,I,0
147390,98,S,0
147390,135,L,0
147390,211,K,0
147391,12,E,0
147391,19,I,0
147391,60,E,1
147391,62,V,0
147391,63,H,0
147391,77,I,0
147391,93,L,0
147392,35,T,0
147392,98,S,0
147392,122,E,0
147392,135,T,0
147392,211,K,0
147392,245,E,0
147393,37,H,0
147393,62,V,0
147393,63,P,0
147393,77,I,0
147393,93,L,0
147394,98,S,0
147394,122,E,0
147394,123,N,0
147394,188,L,0
147394,207,E,0
147394,211,K,0
147394,248,D,0
147395,15,V,0
147395,37,S,0
147395,41,K,0
147396,15,V,0
147396,36,I,0
147396,37,S,0
147396,57,K,0
147396,62,V,0
147396,63,P,0
147396,72,T,0
147397,60,I,0
147397,142,T,0
147397,195,T,0
147397,250,E,0
147398,15,V,0
147398,35,D,0
147398,63,P,0
147399,35,D,0
147399,37,S,0
147399,38,V,1
147399,41,K,0
147399,63,P,0
147399,77,I,0
147399,93,L,0
147400,26,F,0
147400,118,I,0
147400,123,E,0
147400,174,R,0
147400,177,E,0
147400,207,G,0
147400,211,K,0
147400,214,L,0
147400,245,I,0
147401,19,I,0
147401,35,D,0
147401,37,W,0
147401,41,K,0
147401,77,I,0
147401,93,L,0
147402,121,H,0
147402,122,E,0
147402,142,T,0
147402,178,M,0
147402,211,K,0
147403,14,R,1
147403,15,V,0
147403,35,D,0
147403,37,E,0
147403,63,C,0
147404,11,Q,0
147404,135,T,0
147404,178,M,0
147404,202,V,0
147404,211,K,0
147405,35,D,0
147405,63,P,0
147406,21,I,0
147406,135,T,0
147406,138,A,0
147406,162,C,0
147406,197,P,0
147406,200,A,0
147407,10,V,0
147407,37,S,0
147407,62,V,0
147407,63,P,0
147407,93,L,0
147408,14,T,0
147408,35,I,0
147408,142,K,0
147408,162,C,0
147408,200,I,0
147408,211,G,0
147408,245,K,0
147408,251,C,0
147409,19,Q,0
147409,35,D,0
147409,37,S,0
147409,41,K,0
147409,63,P,0
147409,82,I,0
147409,93,L,0
147410,20,R,0
147410,123,E,0
147410,135,V,0
147410,166,R,0
147410,211,K,0
147410,245,K,0
147410,250,E,0
147411,57,K,0
147411,63,P,0
147411,93,L,0
147412,121,Y,0
147412,122,E,0
147412,135,T,0
147412,162,C,0
147412,173,R,0
147412,211,G,0
147412,214,L,0
147413,36,I,0
147413,41,K,0
147413,69,K,0
147414,83,K,0
147414,169,D,0
147414,200,A,0
147414,245,E,0
147415,72,V,0
147416,122,E,0
147416,166,R,0
147416,200,A,1
147416,214,L,0
147416,245,T,0
147417,14,R,0
147417,64,V,0
147417,93,L,0
147418,22,X,0
147418,135,T,0
147418,207,E,0
147418,215,A,0
147419,13,V,0
147419,17,E,0
147419,35,N,0
147419,36,I,0
147419,37,D,0
147419,41,K,0
147419,57,K,0
147419,69,K,0
147419,89,M,0
147420,11,A,0
147420,35,T,0
147420,40,D,0
147420,60,I,0
147420,121,H,0
147420,122,E,0
147420,123,S,0
147420,162,C,0
147420,166,R,0
147420,173,A,0
147420,177,E,0
147420,200,A,0
147420,211,K,0
147420,245,Q,0
147421,41,K,0
147421,63,Q,0
147421,93,L,0
147422,97,X,0
147422,99,X,0
147422,164,I,1
147422,170,L,1
147422,189,I,0
147422,250,E,0
147423,14,R,0
147423,19,I,0
147423,36,L,0
147423,62,V,0
147423,63,C,0
147424,121,Y,0
147424,122,E,0
147424,162,C,0
147424,245,A,0
147425,37,I,0
147425,41,K,0
147425,63,S,0
147425,64,V,0
147426,15,V,0
147426,37,E,0
147426,93,L,0
147427,64,R,0
147427,122,E,0
147427,135,T,0
147427,169,D,0
147427,200,A,0
147427,211,K,0
147427,214,L,0
147428,35,D,0
147428,63,P,0
147428,93,L,0
147429,18,H,0
147429,35,D,0
147429,63,P,0
147429,71,V,0
147429,93,L,0
147430,12,A,0
147430,62,V,0
147430,63,P,0
147430,93,L,0
147431,162,C,0
147431,184,V,0
147431,200,A,0
147432,15,V,0
147432,36,I,0
147432,41,K,0
147432,59,S,1
147432,69,K,0
147432,89,M,0
147432,93,L,0
147433,35,T,0
147433,36,A,0
147433,39,E,0
147433,98,S,0
147433,122,E,0
147433,123,S,0
147433,158,S,0
147433,173,A,0
147433,177,E,0
147433,200,A,0
147433,207,E,0
147433,211,K,0
147433,245,Q,0
147434,14,R,0
147434,33,V,0
147434,37,S,0
147434,41,K,0
147434,64,V,0
147434,93,L,0
147435,35,D,0
147435,39,Q,0
147435,41,K,0
147435,57,K,0
147435,63,P,0
147435,64,V,0
147435,69,Y,0
147436,122,E,0
147436,162,C,0
147437,12,I,0
147437,37,D,0
147437,62,V,0
147437,63,P,0
147437,69,N,0
147437,77,I,0
147438,37,S,0
147438,77,I,0
147438,93,L,0
147439,83,K,0
147439,122,E,0
147439,123,E,0
147439,135,V,0
147439,166,R,0
147440,13,V,0
147440,37,D,0
147440,39,S,0
147440,60,E,0
147440,63,P,0
147440,71,V,0
147440,77,I,0
147440,93,L,0
147441,20,R,0
147441,122,E,0
147441,123,N,0
147441,214,L,0
147442,35,D,0
147442,37,V,0
147442,41,K,0
147442,60,E,0
147442,63,P,0
147443,142,T,0
147443,211,G,0
147444,12,A,0
147444,35,D,0
147444,36,I,0
147444,37,D,0
147444,63,P,0
147444,93,L,0
147445,33,V,0
147445,164,I,1
147445,200,A,0
147445,211,K,0
147446,36,I,0
147446,37,S,0
147446,63,C,0
147447,123,E,0
147447,162,C,0
147447,177,E,0
147447,200,A,0
147447,210,F,0
147447,224,D,0
147448,35,D,0
147448,37,D,0
147448,57,K,0
147448,62,V,0
147448,63,S,0
147448,82,I,0
147448,93,L,0
147449,142,T,0
147449,200,A,0
147449,224,G,1
147450,63,S,0
147451,18,H,0
147451,35,D,0
147451,41,K,0
147451,63,P,0
147451,93,L,0
147452,35,T,1
147452,101,R,0
147452,135,R,0
147452,162,C,0
147452,211,K,0
147453,37,D,0
147453,71,T,0
147454,14,R,0
147454,19,V,0
147454,63,P,0
147454,69,Q,0
147454,77,I,0
147454,92,K,0
147455,35,I,0
147455,39,I,0
147455,48,T,0
147455,83,K,0
147455,123,E,0
147455,135,T,0
147455,162,A,0
147455,178,M,0
147455,200,A,0
147455,207,E,0
147455,211,K,0
147455,245,K,0
147456,12,A,0
147456,35,D,0
147456,36,I,0
147456,37,D,0
147456,63,P,0
147456,93,L,0
147457,123,E,0
147457,135,T,0
147457,162,C,0
147458,16,E,0
147459,123,E,0
147459,138,A,0
147459,162,C,0
147459,177,E,0
147459,202,V,0
147459,211,K,0
147460,35,D,0
147460,37,S,0
147460,41,K,0
147460,62,V,0
147460,63,P,0
147460,71,V,0
147460,77,I,0
147460,93,L,0
147461,99,X,0
147461,101,N,0
147461,102,stop,0
147461,103,I,0
147461,104,I,0
147461,117,L,1
147461,137,Y,0
147461,166,N,0
147461,174,R,0
147461,177,N,0
147461,211,E,0
147461,245,M,0
147462,36,I,0
147462,63,C,0
147462,93,L,0
147463,123,E,0
147463,162,C,0
147463,177,E,0
147463,211,K,0
147463,224,D,0
147464,15,V,0
147464,16,E,0
147464,36,I,0
147464,41,K,0
147464,59,S,1
147464,66,L,0
147464,69,K,0
147464,89,M,0
147464,93,L,0
147465,35,T,0
147465,36,A,0
147465,39,E,0
147465,43,R,0
147465,122,E,0
147465,123,G,0
147465,135,T,0
147465,158,S,0
147465,173,A,0
147465,177,E,0
147465,200,A,0
147465,207,E,0
147465,245,Q,0
147466,36,I,0
147466,62,V,0
147466,63,C,0
147466,93,L,0
147467,162,G,0
147467,176,S,0
147467,186,E,0
147467,223,R,0
147468,35,D,0
147468,37,E,0
147468,41,K,0
147468,43,R,0
147468,63,P,0
147468,87,G,0
147468,92,K,0
147469,16,X,0
147469,21,I,0
147469,36,I,0
147469,37,D,0
147469,57,K,0
147469,63,P,0
147469,69,Y,0
147469,72,V,0
147470,60,I,0
147470,98,S,0
147470,123,E,0
147470,135,V,0
147470,142,V,0
147470,215,E,0
147470,245,T,0
147471,35,D,0
147471,36,I,0
147471,37,D,0
147471,63,P,0
147471,71,V,0
147471,93,L,0
147472,57,K,0
147472,63,P,0
147472,93,L,0
147473,63,Q,0
147473,64,V,0
147473,77,I,0
147474,20,R,0
147474,122,E,0
147474,135,T,0
147474,162,C,0
147474,207,E,0
147475,15,V,0
147475,20,R,0
147475,39,Q,0
147475,41,K,0
147475,63,P,0
147475,71,T,0
147475,93,L,0
147476,101,R,0
147476,122,E,0
147476,123,S,0
147476,162,N,0
147476,207,E,0
147476,211,K,0
147477,16,E,0
147477,35,D,0
147477,37,T,0
147477,62,V,0
147477,63,S,0
147477,64,V,0
147477,65,D,0
147477,72,V,0
147478,20,R,0
147478,99,X,0
147478,135,T,0
147478,138,A,0
147479,15,V,0
147479,36,I,0
147479,43,N,1
147479,44,L,0
147479,45,L,1
147479,46,I,1
147479,62,V,0
147479,63,P,0
147479,65,stop,0
147479,72,V,0
147480,162,C,0
147480,174,K,0
147481,57,K,0
147481,63,P,0
147481,93,L,0
147482,204,K,0
147482,211,G,0
147482,214,L,0
147483,35,D,0
147483,37,Y,0
147483,41,K,0
147483,45,R,0
147483,63,P,0
147483,77,I,0
147483,93,L,0
147484,142,V,0
147484,162,A,0
147484,178,M,0
147484,207,G,0
147484,210,M,1
147484,211,K,0
147484,238,R,0
147485,15,V,0
147485,16,E,0
147485,62,V,0
147485,63,C,0
147486,123,E,0
147486,162,C,0
147486,177,E,0
147487,14,R,0
147487,57,K,0
147487,63,P,0
147487,65,K,1
147487,93,L,0
147488,135,T,1
147488,211,G,0
147488,214,L,0
147489,24,G,1
147489,26,M,0
147489,31,R,1
147489,35,G,1
147489,36,G,1
147489,37,S,1
147489,38,R,1
147489,41,T,1
147489,42,D,1
147489,43,X,1
147489,44,G,1
147489,46,R,1
147489,47,T,1
147489,48,R,1
147489,49,X,1
147489,50,P,0
147489,51,R,1
147489,52,X,1
147489,53,X,1
147489,57,K,1
147489,101,A,0
147489,162,C,0
147489,177,E,0
147490,2,H,1
147490,15,L,0
147490,19,I,0
147490,35,D,1
147490,38,F,1
147490,58,E,1
147490,63,P,0
147490,65,D,0
147490,88,Y,0
147490,92,H,0
147491,6,D,0
147491,24,stop,0
147491,26,I,0
147491,27,D,0
147491,28,R,0
147491,29,R,0
147491,41,R,1
147491,47,R,1
147491,48,P,1
147491,50,T,0
147491,51,P,0
147491,52,T,1
147491,53,X,1
147491,135,T,0
147491,162,C,0
147491,177,N,0
147491,211,K,0
147492,4,I,1
147492,19,I,0
147492,20,R,0
147492,37,S,0
147492,41,K,0
147492,63,P,0
147492,92,K,0
147493,35,I,0
147493,173,E,0
147493,207,E,0
147493,245,T,0
147494,16,E,0
147494,37,S,0
147494,39,S,0
147494,63,P,0
147494,77,I,0
147494,93,L,0
147495,135,V,0
147495,162,C,0
147495,200,I,0
147495,203,D,0
147495,211,K,0
147496,32,I,0
147496,35,D,0
147496,37,D,0
147496,63,S,0
147496,64,L,0
147497,64,R,0
147497,69,S,0
147497,162,C,0
147497,194,G,0
147497,211,K,0
147498,57,K,0
147498,63,P,0
147498,93,L,0
147499,204,K,0
147499,211,G,0
147499,214,L,0
147500,10,V,0
147500,15,V,0
147500,36,I,0
147500,57,K,0
147500,63,P,0
147501,102,Q,0
147501,122,E,0
147501,123,E,0
147501,135,T,0
147501,162,C,0
147501,177,E,0
147501,189,I,0
147501,207,N,0
147502,13,V,0
147502,15,V,0
147502,35,D,0
147502,37,S,1
147502,57,K,0
147502,63,P,0
147503,11,R,0
147503,20,R,0
147503,60,I,0
147503,123,E,0
147503,135,T,0
147503,177,E,0
147503,207,E,0
147503,211,K,1
147503,245,M,1
147503,248,D,0
147504,35,D,0
147504,36,I,0
147504,37,D,0
147504,62,V,0
147504,63,P,0
147504,93,L,0
147505,123,E,0
147505,162,C,0
147505,177,E,0
147505,200,A,0
147505,211,K,0
147506,33,I,0
147506,37,C,0
147506,39,S,0
147506,41,K,0
147506,63,P,0
147506,71,T,0
147506,93,L,0
147507,6,D,0
147507,162,C,0
147507,178,M,0
147507,194,D,0
147507,200,A,0
147507,245,E,0
147507,251,N,0
147508,13,V,0
147508,33,V,0
147508,34,G,0
147508,37,C,0
147508,39,S,0
147508,41,K,0
147508,60,E,0
147508,64,V,0
147509,21,L,1
147509,47,M,1
147509,83,K,0
147509,123,E,0
147509,177,E,0
147509,200,A,0
147509,211,K,0
147509,246,X,0
147509,248,D,1
147509,249,T,1
147510,18,H,0
147510,35,D,0
147510,41,K,0
147510,63,P,0
147510,93,L,0
147511,35,I,0
147511,41,L,0
147511,101,R,0
147511,135,R,0
147511,162,C,0
147511,211,K,0
147512,6,G,1
147512,10,V,0
147512,37,S,0
147512,53,X,1
147512,56,A,1
147512,59,Q,1
147512,62,V,0
147512,63,P,0
147512,64,T,1
147512,75,A,1
147512,76,S,1
147512,77,A,1
147512,79,A,0
147512,83,T,0
147512,84,T,1
147512,90,V,1
147513,35,D,0
147513,36,I,0
147513,37,D,0
147513,62,V,0
147513,63,P,0
147513,64,L,0
147513,68,E,0
147513,71,V,0
147513,93,L,0
147514,20,R,0
147514,104,T,0
147514,122,E,0
147514,123,S,0
147514,168,stop,0
147514,171,L,0
147514,182,K,0
147514,186,V,0
147514,207,P,1
147514,210,stop,1
147514,211,K,0
147514,233,K,1
147514,245,T,1
147514,247,X,0
147514,248,R,0
147514,249,Q,1
147514,251,V,0
147515,15,V,0
147515,36,I,0
147515,63,P,0
147515,72,V,1
147516,35,I,0
147516,83,K,0
147516,123,E,0
147516,135,V,1
147516,177,E,0
147516,245,E,0
147517,14,R,0
147517,37,S,0
147517,41,K,0
147517,63,P,0
147518,20,R,0
147518,99,X,0
147518,123,E,0
147518,135,T,0
147518,177,E,0
147518,211,K,0
147518,245,K,0
147518,250,E,0
147519,15,V,0
147519,35,D,0
147519,39,Q,0
147519,56,I,0
147519,63,P,0
147520,27,P,0
147520,83,K,0
147520,90,G,1
147520,92,S,0
147520,100,C,0
147520,101,X,1
147520,102,T,1
147520,103,R,1
147520,106,G,0
147520,109,Q,0
147520,113,E,1
147520,115,H,0
147520,116,V,0
147520,118,G,0
147520,120,stop,0
147520,121,E,0
147520,124,V,1
147520,130,G,0
147520,134,R,1
147520,146,N,0
147520,148,A,0
147520,153,R,0
147520,159,T,0
147520,160,S,0
147520,167,T,0
147520,168,S,0
147520,171,V,1
147520,178,R,0
147520,183,H,0
147520,184,T,0
147520,187,S,0
147520,193,S,0
147520,200,A,0
147520,209,P,0
147520,211,K,0
147520,214,S,0
147520,227,S,0
147520,228,P,0
147520,229,G,0
147520,232,D,0
147520,238,R,0
147520,239,G,0
147520,245,A,0
147520,246,R,1
147520,248,Q,1
147520,249,N,1
147521,15,V,1
147521,35,D,1
147521,56,I,1
147521,63,P,0
147521,72,V,1
147521,77,I,1
147521,93,L,0
147522,16,T,1
147522,27,P,0
147522,35,M,1
147522,60,I,0
147522,69,S,0
147522,101,R,0
147522,138,A,0
147522,142,L,0
147522,173,N,0
147522,177,E,0
147522,178,M,0
147522,214,L,0
147523,41,K,0
147523,62,V,1
147523,63,C,0
147523,72,V,0
147523,92,K,0
147524,135,T,0
147524,162,F,0
147524,179,I,0
147524,211,G,0
147525,36,I,0
147525,62,V,0
147525,63,C,0
147525,93,L,0
147526,125,S,1
147526,135,V,0
147526,162,C,0
147526,176,S,0
147526,214,L,0
147527,12,S,0
147527,15,V,0
147527,19,I,0
147527,35,D,0
147527,36,I,0
147527,69,K,0
147527,89,M,0
147528,35,T,0
147528,36,A,0
147528,39,E,0
147528,48,T,0
147528,60,I,0
147528,122,E,0
147528,123,S,0
147528,173,T,0
147528,177,E,0
147528,200,A,0
147528,202,V,0
147528,204,Q,0
147528,211,K,0
147528,245,Q,0
147529,14,R,0
147529,19,Q,0
147529,37,S,0
147529,63,P,0
147529,93,L,0
147530,104,I,0
147530,105,T,1
147530,115,stop,1
147530,116,V,0
147530,127,N,0
147530,128,I,0
147530,130,X,0
147530,132,L,0
147530,134,R,0
147530,136,R,0
147530,137,C,0
147530,138,Q,0
147530,139,K,0
147530,141,N,0
147530,143,Q,0
147530,144,H,0
147530,146,R,0
147530,147,X,0
147530,148,A,1
147530,150,H,0
147530,153,R,0
147530,154,E,0
147530,155,R,0
147530,156,T,0
147530,160,S,0
147530,161,P,0
147530,162,R,0
147530,164,Q,0
147530,165,C,0
147530,167,T,1
147530,168,P,0
147530,171,L,0
147530,174,A,0
147530,175,K,0
147530,177,E,0
147530,178,T,0
147530,179,G,1
147530,180,M,0
147530,181,H,0
147530,182,A,0
147530,183,N,1
147530,184,R,1
147530,185,E,1
147530,186,E,1
147530,191,T,1
147530,192,V,0
147530,193,P,0
147530,195,T,0
147530,197,P,0
147530,198,P,1
147530,200,S,1
147530,202,T,0
147530,205,P,0
147530,206,stop,0
147530,207,P,0
147530,208,P,0
147530,209,P,1
147530,211,G,1
147530,214,N,1
147530,215,I,1
147530,216,P,1
147530,218,E,0
147530,219,Q,0
147531,41,K,1
147531,63,C,0
147532,11,X,1
147532,100,T,1
147532,162,C,0
147532,189,I,0
147532,207,E,1
147533,12,A,1
147533,35,D,0
147533,63,P,0
147533,93,L,0
147534,135,T,0
147534,162,C,0
147534,173,R,0
147534,200,A,0
147534,211,K,0
147535,15,V,0
147535,77,I,0
147535,93,L,0
147536,35,I,0
147536,83,K,0
147536,123,E,0
147536,135,V,0
147536,211,K,0
147537,12,P,0
147537,14,R,0
147537,37,T,0
147537,63,C,0
147537,77,I,0
147537,93,L,0
147538,49,R,0
147538,123,E,0
147538,135,T,0
147538,162,C,0
147538,196,E,0
147539,35,D,0
147539,62,V,0
147539,63,C,0
147540,135,T,0
147540,142,T,0
147540,162,C,0
147541,13,V,0
147541,20,R,0
147541,36,I,0
147541,41,K,0
147541,62,V,0
147541,63,P,0
147541,93,L,0
147542,135,V,0
147542,211,K,0
147542,245,R,0
147542,248,D,0
147543,13,V,0
147543,20,R,0
147543,36,I,0
147543,41,K,0
147543,62,V,0
147543,63,P,0
147543,93,L,0
147544,135,V,0
147544,211,K,0
147544,245,R,0
147544,248,D,0
147545,2,N,0
147545,3,R,0
147545,5,X,1
147545,8,G,1
147545,9,T,1
147545,10,G,1
147545,12,R,1
147545,16,R,0
147545,17,E,1
147545,21,R,1
147545,22,R,1
147545,23,X,1
147545,24,P,0
147545,26,P,0
147545,27,P,1
147545,29,D,1
147545,30,Y,0
147545,31,T,1
147545,34,T,1
147545,35,T,0
147545,36,A,0
147545,37,T,1
147545,38,X,1
147545,39,E,0
147545,41,R,0
147545,46,L,0
147545,48,T,0
147545,49,stop,0
147545,53,Q,1
147545,54,K,1
147545,56,Q,1
147545,60,T,1
147545,61,T,1
147545,72,T,1
147545,76,E,1
147545,121,Y,0
147545,122,E,0
147545,123,E,0
147545,135,R,0
147545,173,A,0
147545,174,R,0
147545,177,E,0
147545,194,A,0
147545,200,A,0
147545,202,V,0
147545,207,E,0
147545,211,K,0
147545,245,Q,0
147545,246,R,1
147545,250,E,0
147546,35,D,0
147546,63,P,0
147546,77,I,0
147546,93,L,0
147547,162,C,0
147547,211,K,0
147547,228,F,0
147547,249,Q,0
147548,35,D,0
147548,41,K,0
147548,62,V,0
147548,63,P,0
147548,93,L,0
147549,28,A,0
147549,60,I,0
147549,135,T,0
147549,142,T,0
147549,169,D,0
147549,179,D,0
147549,200,A,0
147549,211,K,1
147549,214,L,0
147550,12,A,1
147550,15,V,0
147550,16,E,0
147550,20,R,0
147550,36,I,0
147550,62,V,0
147550,63,C,0
147550,72,M,0
147551,6,D,0
147551,135,T,0
147551,162,C,0
147552,35,D,0
147552,37,D,0
147552,60,E,0
147552,63,P,0
147553,64,R,0
147553,123,E,0
147553,162,C,0
147553,169,D,0
147553,211,K,0
147554,15,V,0
147554,18,H,0
147554,35,D,0
147554,41,K,0
147554,63,S,0
147554,64,L,1
147554,71,V,0
147554,93,L,0
147555,26,F,1
147555,35,I,1
147555,123,E,0
147555,135,R,0
147555,162,C,0
147555,177,E,0
147555,196,E,0
147555,211,Q,0
147555,214,L,0
147556,35,D,0
147556,36,I,0
147556,37,D,0
147556,57,K,1
147556,63,P,0
147556,93,L,0
147557,162,C,0
147557,169,D,0
147557,200,A,0
147557,207,H,0
147557,211,K,0
147558,35,D,0
147558,63,P,0
147558,77,I,0
147558,93,L,0
147559,162,C,0
147559,211,T,0
147559,228,F,0
147560,16,E,0
147560,37,S,0
147560,39,S,0
147560,63,P,0
147560,77,I,0
147560,93,L,0
147561,135,V,0
147561,162,C,0
147561,200,I,0
147561,203,D,0
147561,211,K,0
147562,37,S,0
147562,41,K,0
147562,63,S,0
147562,77,I,0
147562,93,L,0
147563,53,stop,1
147563,123,E,0
147563,177,E,0
147563,178,M,0
147563,207,E,0
147563,245,M,0
147564,15,V,0
147564,37,S,1
147564,77,I,0
147564,93,L,0
147565,26,M,1
147565,28,R,1
147565,29,V,1
147565,32,R,1
147565,35,I,0
147565,83,K,0
147565,123,E,0
147565,135,V,0
147566,15,V,0
147566,36,I,0
147566,41,K,0
147566,63,C,0
147566,93,L,0
147567,53,stop,0
147567,113,Y,0
147567,137,X,1
147567,147,K,0
147567,161,X,1
147567,162,C,0
147567,166,N,1
147567,207,K,1
147567,248,D,0
147568,14,R,0
147568,15,V,0
147568,35,D,0
147568,36,I,0
147568,41,K,0
147568,63,P,0
147569,123,E,0
147569,162,C,0
147569,178,L,0
147569,200,A,0
147569,204,Q,0
147569,207,A,0
147569,211,K,0
147569,248,D,0
147570,14,R,1
147570,18,H,0
147570,35,D,0
147570,63,P,0
147570,93,L,0
147571,121,Y,0
147571,122,E,0
147571,135,R,0
147571,162,C,0
147571,179,I,0
147571,211,K,0
147572,10,V,0
147572,37,S,0
147572,62,V,0
147572,63,P,0
147572,93,L,0
147573,9,A,0
147573,14,T,0
147573,35,I,0
147573,132,V,0
147573,135,T,0
147573,152,V,1
147573,162,C,0
147573,200,I,0
147573,245,K,0
147573,251,C,0
147574,19,T,0
147574,41,K,0
147574,62,V,0
147574,63,Q,0
147574,64,L,0
147574,77,I,0
147574,93,L,0
147575,145,C,0
147575,162,H,0
147575,200,A,0
147575,248,N,0
147576,35,D,0
147576,37,D,0
147576,41,K,0
147576,60,E,0
147576,63,P,0
147576,90,F,1
147577,26,F,1
147577,35,I,0
147577,121,H,0
147577,122,E,0
147577,177,E,0
147578,13,V,0
147578,35,D,0
147578,37,S,0
147578,41,K,0
147578,60,E,0
147578,63,P,0
147578,64,V,0
147578,77,I,0
147579,135,V,0
147579,189,I,0
147579,194,K,0
147579,196,E,0
147579,200,S,0
147579,214,L,0
147579,245,M,0
147580,16,E,0
147581,123,E,0
147581,138,A,0
147581,162,C,0
147581,177,E,0
147581,202,V,0
147581,211,K,0
147582,35,D,0
147582,37,S,0
147582,63,P,0
147583,20,R,0
147583,123,E,0
147583,166,R,0
147583,211,K,0
147583,245,M,0
147583,251,I,0
147584,13,V,0
147584,15,V,0
147584,16,E,0
147584,62,V,0
147584,63,H,0
147585,8,I,0
147585,26,M,1
147585,29,V,1
147585,30,N,1
147585,35,I,0
147585,60,I,0
147585,123,E,0
147585,135,M,0
147585,174,K,0
147585,178,L,0
147585,211,K,0
147586,35,D,0
147586,37,D,0
147586,57,K,0
147586,62,V,0
147586,63,S,0
147586,82,I,0
147586,93,L,0
147587,142,T,0
147587,200,A,0
147587,211,G,0
147588,12,P,0
147588,19,I,0
147588,37,D,0
147588,57,K,0
147588,63,C,0
147588,71,T,0
147588,77,I,0
147589,49,R,0
147589,123,E,0
147589,135,T,0
147589,162,C,0
147589,169,D,0
147589,211,Q,0
147590,63,C,0
147591,162,C,0
147591,186,Y,1
147591,189,I,0
147591,211,K,0
147592,12,S,0
147592,15,V,0
147592,16,E,0
147592,19,I,0
147592,20,R,0
147592,36,I,0
147592,41,K,0
147592,57,K,0
147592,63,T,0
147592,69,K,0
147592,93,L,0
147593,35,T,0
147593,36,A,0
147593,39,E,0
147593,48,E,0
147593,60,I,0
147593,122,E,0
147593,123,S,0
147593,173,T,0
147593,174,K,0
147593,200,A,0
147593,207,E,0
147593,211,K,0
147593,245,M,0
147594,35,D,0
147594,37,D,0
147594,41,K,0
147594,60,E,0
147594,63,P,0
147594,77,I,0
147595,26,F,0
147595,29,V,0
147595,123,N,0
147595,142,T,1
147595,177,E,0
147595,211,G,0
147596,13,V,0
147596,41,K,0
147596,57,K,0
147596,60,E,0
147596,64,V,0
147597,26,F,0
147597,123,E,0
147597,179,D,0
147597,214,L,0
147597,245,Q,0
147598,12,A,0
147598,63,P,0
147598,77,I,0
147598,93,L,0
147599,28,A,0
147599,60,I,0
147599,86,H,0
147599,130,P,0
147599,135,T,0
147599,142,T,0
147599,169,D,0
147599,179,D,0
147599,207,E,0
147599,210,S,0
147599,214,L,0
147599,248,D,1
147600,12,K,0
147600,39,A,0
147600,63,P,0
147600,71,T,0
147600,77,I,0
147600,93,L,0
147601,160,S,1
147601,177,E,0
147601,178,M,0
147601,179,I,0
147601,200,A,0
147601,207,E,0
147601,228,P,1
147602,15,V,0
147602,35,D,0
147602,63,C,0
147602,82,I,1
147602,93,L,0
147603,102,X,1
147603,162,C,0
147603,211,K,0
147604,57,K,0
147604,63,P,0
147604,93,L,0
147605,135,T,0
147605,211,K,0
147605,214,L,0
147606,13,V,0
147606,15,V,0
147606,20,R,0
147606,22,S,0
147606,36,I,0
147606,57,K,0
147606,72,V,0
147607,135,T,0
147607,245,M,0
147607,250,E,0
147608,57,H,1
147608,58,P,1
147608,64,N,1
147608,67,Y,1
147608,69,S,1
147608,122,E,0
147608,123,E,0
147608,135,R,0
147608,245,K,0
147608,250,E,0
147609,2,F,0
147609,3,G,0
147609,5,L,0
147609,6,X,1
147609,7,P,0
147609,10,L,1
147609,11,X,1
147609,12,Y,1
147609,13,R,1
147609,16,W,1
147609,17,V,0
147609,20,G,1
147609,21,F,1
147609,22,S,1
147609,23,X,0
147609,24,L,1
147609,26,V,1
147609,27,A,0
147609,28,G,0
147609,29,X,1
147609,30,R,1
147609,31,X,1
147609,32,T,1
147609,33,G,1
147609,34,F,0
147609,36,G,0
147609,37,L,0
147609,39,S,1
147609,40,G,0
147609,43,R,1
147609,44,D,1
147609,47,M,1
147609,48,stop,0
147609,49,N,1
147609,53,K,1
147609,54,K,1
147609,72,K,1
147609,103,T,1
147609,122,F,0
147609,123,E,0
147609,162,C,0
147609,177,E,0
147609,200,A,0
147609,211,S,0
147610,10,V,0
147610,14,R,0
147610,15,V,0
147610,35,D,0
147610,63,P,0
147610,93,L,0
147611,35,I,0
147611,64,R,0
147611,135,T,0
147611,178,M,0
147611,207,E,0
147611,245,I,0
147612,10,I,0
147612,63,P,0
147612,64,L,0
147612,77,I,0
147612,93,L,0
147613,121,Y,0
147613,122,E,0
147613,123,E,0
147613,135,V,0
147613,162,C,0
147613,207,E,0
147613,248,D,0
147613,251,I,0
147614,69,S,0
147614,70,stop,1
147614,73,Q,1
147614,76,V,0
147614,90,I,0
147614,118,I,0
147614,121,Y,0
147614,122,E,0
147614,125,S,0
147614,126,stop,0
147614,135,T,0
147614,142,L,0
147614,144,F,0
147614,173,E,0
147614,177,E,0
147614,200,M,0
147614,207,E,0
147614,211,K,0
147614,245,T,0
147614,250,E,0
147615,15,V,0
147615,35,D,0
147615,37,S,0
147615,41,K,0
147615,64,V,0
147616,122,E,0
147616,162,C,0
147616,177,E,0
147616,245,E,0
147616,248,D,1
147616,250,Y,1
147616,252,S,1
147617,12,K,0
147617,14,R,0
147617,35,D,0
147617,37,S,0
147617,41,K,0
147617,43,R,0
147617,62,V,0
147617,63,P,0
147617,71,V,0
147617,77,I,0
147617,93,L,0
147618,9,T,1
147618,35,I,0
147618,98,S,0
147618,122,E,0
147618,123,N,0
147618,135,T,1
147618,144,F,1
147618,178,L,0
147618,196,E,0
147618,207,R,0
147618,211,A,0
147619,12,S,0
147619,35,D,0
147619,37,D,0
147619,43,R,0
147619,57,K,0
147619,60,E,0
147619,63,P,0
147619,71,T,0
147620,122,E,0
147620,123,G,0
147620,135,T,0
147620,211,A,0
147620,214,L,0
147621,15,V,0
147621,36,I,0
147621,41,K,0
147621,63,C,0
147621,77,I,0
147621,93,L,0
147622,135,T,0
147622,162,C,0
147622,173,R,0
147622,211,K,1
147623,57,K,0
147623,63,P,0
147623,93,L,0
147624,26,F,0
147624,121,Y,0
147624,122,E,0
147624,135,T,0
147624,162,C,0
147624,173,R,0
147624,211,K,0
147624,214,L,0
147625,36,I,1
147625,63,C,0
147625,93,L,0
147626,63,S,0
147626,64,L,0
147626,69,Q,0
147626,77,I,0
147627,29,V,0
147627,35,I,0
147627,36,V,0
147627,46,N,0
147627,158,S,0
147627,245,M,0
147628,13,V,0
147628,35,D,0
147628,37,S,0
147628,41,K,0
147628,60,E,0
147628,63,P,0
147628,64,V,0
147628,77,I,0
147629,24,stop,0
147629,26,I,0
147629,27,K,0
147629,28,R,0
147629,29,L,0
147629,31,Q,0
147629,36,K,0
147629,37,F,0
147629,38,L,0
147629,49,R,0
147629,53,K,0
147629,72,W,1
147629,76,A,0
147629,77,N,0
147629,90,E,0
147629,100,V,0
147629,102,R,0
147629,103,R,0
147629,116,K,0
147629,117,T,0
147629,135,V,0
147629,186,E,1
147629,196,E,0
147629,200,S,0
147629,203,G,0
147629,214,L,0
147629,223,T,1
147629,238,X,1
147629,240,S,1
147629,245,R,1
147629,246,R,1
147629,249,E,1
147630,63,S,0
147630,64,L,0
147630,69,Q,0
147631,103,stop,0
147631,135,T,0
147631,158,S,0
147631,245,M,0
147631,251,R,1
147632,14,R,0
147632,41,K,0
147632,60,E,0
147632,62,V,1
147632,63,P,0
147632,77,I,0
147632,93,L,0
147633,200,I,0
147633,214,L,0
147634,15,V,0
147634,36,I,0
147634,41,K,0
147634,60,E,0
147634,63,C,0
147634,93,L,0
147635,135,T,0
147635,162,C,0
147635,174,K,0
147635,207,E,0
147635,248,D,1
147636,19,I,0
147636,37,S,0
147636,41,K,0
147636,63,P,0
147636,93,L,0
147637,20,R,0
147637,122,P,0
147637,177,E,0
147637,196,E,0
147637,211,G,0
147637,245,K,0
147637,250,E,0
147638,13,V,0
147638,35,Y,0
147638,37,S,0
147638,44,K,0
147638,63,P,0
147639,57,K,0
147639,71,T,0
147639,77,I,0
147640,98,S,0
147640,139,K,0
147640,162,C,0
147640,184,V,0
147640,196,E,0
147640,207,E,0
147640,211,K,0
147640,214,L,0
147640,228,Q,0
147640,245,E,0
147641,35,D,0
147641,37,Y,0
147641,41,K,0
147641,45,R,0
147641,62,V,0
147641,63,P,0
147641,77,I,0
147641,93,L,0
147642,39,S,0
147642,142,V,0
147642,162,A,0
147642,174,H,0
147642,178,M,0
147642,207,E,0
147642,211,K,0
147642,238,R,0
147643,12,S,0
147643,15,V,0
147643,19,I,0
147644,122,E,0
147644,162,C,0
147644,203,D,0
147644,207,A,0
147644,211,K,0
147644,245,E,0
147645,13,V,0
147645,35,D,0
147645,37,S,0
147645,63,P,0
147646,20,R,0
147646,123,E,0
147646,135,T,0
147646,166,R,0
147646,187,V,1
147646,200,X,0
147646,211,K,0
147646,219,stop,0
147646,223,I,0
147646,226,L,0
147646,228,X,0
147646,233,D,0
147647,35,D,0
147647,63,P,0
147647,93,L,0
147648,49,R,0
147648,162,C,0
147648,173,R,0
147648,211,K,0
147649,37,S,0
147649,63,C,0
147649,72,T,0
147649,77,I,0
147650,162,C,0
147651,15,V,0
147651,36,I,0
147651,63,C,0
147651,70,Q,0
147652,86,E,0
147652,102,Q,0
147652,135,R,0
147652,162,Y,0
147652,196,E,0
147653,12,S,0
147653,19,I,0
147653,63,P,0
147654,142,V,0
147654,162,C,0
147654,211,K,0
147654,245,E,0
147655,15,V,0
147655,16,A,0
147655,57,K,0
147656,35,I,0
147656,41,L,0
147656,122,E,0
147656,135,T,0
147656,162,C,0
147656,215,E,0
147657,35,D,0
147657,36,I,0
147657,37,D,0
147657,63,P,0
147657,93,L,0
147658,53,Q,1
147658,169,D,0
147658,200,A,0
147658,211,Q,0
147659,35,D,0
147659,36,I,0
147659,37,D,0
147659,63,P,0
147659,69,Q,0
147659,71,V,0
147659,93,L,0
147660,106,I,0
147660,123,E,0
147660,162,C,0
147660,173,E,0
147660,178,L,0
147660,207,E,0
147661,90,F,1
147661,91,X,1
147662,35,I,0
147662,47,M,1
147662,123,E,0
147662,173,E,0
147662,179,I,0
147662,207,E,0
147662,245,M,0
147663,16,E,0
147664,83,K,0
147664,123,E,0
147664,126,X,0
147664,138,A,0
147664,162,C,0
147664,177,E,0
147664,202,V,0
147664,211,K,0
147665,37,A,0
147665,39,S,0
147665,63,P,0
147665,77,I,0
147666,162,C,0
147666,180,V,0
147666,197,E,0
147666,211,K,0
147667,41,K,0
147668,11,T,1
147668,35,I,0
147668,83,K,0
147668,108,I,1
147668,122,V,0
147668,123,N,0
147668,139,K,0
147668,177,E,0
147668,179,I,0
147668,200,I,0
147669,35,D,0
147669,37,D,0
147669,63,P,0
147669,71,T,0
147669,77,I,0
147669,93,L,0
147670,162,C,0
147670,211,K,0
147671,10,V,0
147671,13,V,0
147671,15,V,0
147671,35,D,0
147671,37,D,0
147671,63,P,0
147671,64,V,0
147672,123,E,0
147672,135,M,0
147672,165,I,0
147672,202,V,0
147672,211,K,0
147673,15,V,0
147673,18,L,0
147673,35,D,0
147673,36,I,0
147673,37,D,0
147673,41,K,0
147673,63,P,0
147673,93,L,0
147674,135,R,0
147674,162,W,0
147674,211,K,0
147674,251,I,0
147675,12,A,0
147675,35,D,0
147675,36,I,0
147675,63,P,0
147675,93,L,0
147676,135,T,0
147676,162,C,0
147676,174,K,0
147676,197,E,0
147676,200,A,0
147676,211,K,0
147677,13,V,0
147677,15,V,0
147677,64,V,0
147678,53,stop,1
147678,162,C,0
147678,169,D,0
147678,211,K,1
147678,245,K,0
147679,13,V,1
147679,36,I,0
147679,62,V,0
147679,63,C,0
147679,64,V,0
147680,122,E,0
147680,200,A,0
147680,245,L,0
147681,14,R,0
147681,36,I,0
147681,62,V,0
147681,63,C,0
147682,122,P,0
147682,162,C,0
147682,176,S,0
147682,189,I,0
147683,12,A,0
147683,15,V,0
147683,19,I,0
147683,38,F,1
147683,63,T,0
147683,65,D,0
147683,70,R,0
147683,77,I,0
147684,123,E,0
147684,135,T,0
147684,166,R,1
147684,177,E,0
147685,10,V,0
147685,13,V,0
147685,15,V,0
147685,35,D,0
147685,37,S,0
147685,38,F,1
147685,62,V,0
147685,63,P,0
147686,6,D,1
147686,26,F,0
147686,98,S,0
147686,122,E,0
147686,135,T,0
147686,211,K,0
147687,14,R,0
147687,36,I,0
147687,62,V,0
147687,63,C,0
147687,93,L,0
147688,162,C,0
147688,189,I,0
147688,207,R,0
147689,10,V,0
147689,37,S,0
147689,62,V,0
147689,63,P,0
147689,93,L,0
147690,6,D,0
147690,14,T,0
147690,35,I,0
147690,102,R,0
147690,162,C,0
147690,200,I,0
147690,245,K,0
147690,251,C,0
147691,12,A,0
147691,13,V,0
147691,14,R,0
147691,37,S,0
147691,41,K,0
147691,45,R,0
147691,60,E,0
147691,62,V,0
147691,63,P,0
147691,64,V,0
147691,77,I,0
147692,135,M,0
147692,200,S,0
147693,36,I,0
147693,37,D,0
147693,60,E,0
147693,62,V,0
147693,63,S,0
147693,71,V,0
147693,77,I,0
147693,93,L,0
147694,60,I,0
147694,64,R,0
147694,122,E,0
147694,174,K,0
147694,196,E,0
147694,200,A,0
147694,202,V,0
147694,207,E,0
147695,15,V,0
147695,35,D,0
147695,37,A,0
147695,63,T,1
147695,90,F,0
147696,12,S,1
147696,35,L,0
147696,86,E,0
147696,200,A,0
147696,202,V,0
147696,211,K,0
147696,214,L,0
147696,245,T,0
147697,13,V,0
147697,16,E,0
147697,20,R,0
147697,35,D,0
147697,36,I,0
147697,41,K,0
147697,57,K,0
147697,69,K,0
147697,89,M,0
147698,35,T,0
147698,39,R,1
147698,40,G,1
147698,122,A,0
147698,123,S,0
147698,135,T,0
147698,173,L,0
147698,177,E,0
147698,179,I,0
147698,207,A,0
147698,211,S,0
147698,245,K,0
147698,250,E,0
147699,10,I,0
147699,13,V,0
147699,37,S,0
147699,41,K,0
147699,47,M,0
147699,63,P,0
147699,93,L,0
147700,35,L,0
147700,39,A,0
147700,48,T,0
147700,122,E,0
147700,174,L,0
147700,245,K,0
147701,37,T,0
147701,63,P,0
147701,64,V,0
147702,122,E,0
147702,196,E,1
147702,200,M,1
147703,41,K,0
147703,46,I,0
147703,63,C,0
147703,72,T,0
147703,77,I,0
147703,93,L,0
147704,121,Y,0
147704,122,E,0
147704,174,R,0
147704,176,T,0
147704,207,E,0
147704,211,K,0
147705,39,S,0
147705,63,P,0
147705,93,L,0
147706,123,E,0
147706,135,V,0
147706,162,C,0
147706,177,E,0
147707,12,I,0
147707,37,E,0
147707,62,V,0
147707,63,S,0
147707,77,I,0
147708,39,A,0
147708,41,L,0
147708,60,I,0
147708,90,I,0
147708,122,P,0
147708,142,T,0
147708,162,C,0
147708,207,E,0
147708,210,W,0
147708,211,K,0
147708,215,S,0
147709,12,P,0
147709,14,R,0
147709,19,Q,0
147709,63,C,0
147709,71,T,0
147709,93,L,0
147710,123,E,0
147710,135,T,0
147710,162,C,0
147710,177,E,0
147710,195,L,0
147710,207,E,0
147710,211,K,0
147711,13,V,0
147711,35,D,0
147711,36,I,0
147711,41,K,0
147711,45,R,0
147711,57,K,0
147711,60,E,0
147711,67,Y,0
147711,69,K,0
147711,89,M,0
147712,35,T,0
147712,40,D,0
147712,49,R,0
147712,50,V,1
147712,60,I,0
147712,121,H,0
147712,122,E,0
147712,177,E,0
147712,207,E,0
147712,211,S,0
147712,245,E,0
147713,41,K,0
147713,46,I,0
147713,63,C,0
147713,72,T,0
147713,77,I,0
147713,93,L,0
147714,121,Y,0
147714,122,E,0
147714,135,T,0
147714,174,K,0
147714,207,E,0
147714,211,K,0
147714,246,M,0
147715,13,V,0
147715,14,R,0
147715,16,E,0
147715,35,D,0
147715,36,I,0
147715,41,K,0
147715,57,K,0
147715,60,E,0
147715,67,Y,0
147715,69,K,0
147715,89,M,0
147715,93,L,0
147716,35,T,0
147716,40,D,0
147716,49,R,0
147716,60,I,0
147716,108,I,0
147716,121,C,0
147716,122,E,0
147716,177,E,0
147716,207,E,0
147716,211,K,0
147716,244,V,0
147716,245,E,0
147717,37,E,0
147717,62,V,0
147717,63,S,0
147718,41,L,0
147718,60,I,0
147718,69,S,1
147718,122,P,0
147718,207,E,0
147718,210,W,0
147718,211,K,0
147718,215,S,0
147718,241,L,1
147719,15,V,0
147719,37,S,0
147720,83,K,0
147720,101,Q,0
147720,122,E,0
147720,173,R,0
147720,200,N,0
147720,248,D,0
147721,12,I,0
147721,35,D,0
147721,37,E,0
147721,62,V,0
147721,63,P,0
147722,39,A,0
147722,41,L,0
147722,60,I,0
147722,122,P,0
147722,142,T,0
147722,162,C,0
147722,207,E,0
147722,210,W,0
147722,211,K,0
147722,215,S,0
147722,241,I,0
147723,36,I,0
147723,37,D,0
147723,62,V,0
147723,63,C,0
147724,121,Y,0
147724,122,E,0
147724,135,T,0
147724,162,C,0
147725,10,I,0
147725,14,R,0
147725,35,D,0
147725,37,D,0
147725,63,P,0
147725,93,L,0
147726,90,I,0
147726,122,E,0
147726,211,K,0
147726,245,M,0
147727,10,V,0
147727,15,V,0
147727,19,V,0
147727,36,I,1
147727,38,W,0
147727,57,K,0
147727,62,V,0
147727,63,P,0
147727,93,L,0
147728,35,I,0
147728,98,S,0
147728,122,E,0
147728,173,Q,0
147728,207,E,0
147729,8,Q,0
147729,15,V,0
147729,37,C,0
147730,45,R,0
147730,102,Q,0
147730,106,I,0
147730,121,N,1
147730,122,E,0
147730,169,D,1
147730,174,K,1
147730,200,I,1
147730,214,L,1
147730,218,E,1
147730,246,M,1
147731,12,A,0
147731,41,K,0
147731,46,I,0
147731,63,C,0
147731,72,T,0
147731,93,L,0
147732,121,Y,0
147732,122,E,0
147732,135,M,0
147732,174,N,0
147732,207,E,0
147732,211,K,0
147732,246,M,0
147733,10,I,0
147733,41,K,0
147733,60,E,0
147733,63,P,0
147733,64,V,0
147733,77,I,0
147733,93,L,0
147734,6,D,0
147734,60,I,0
147734,123,E,0
147734,177,E,0
147734,178,V,0
147734,207,E,0
147735,35,D,0
147735,36,I,0
147735,37,E,0
147735,62,V,0
147735,63,P,0
147735,64,M,0
147736,39,A,0
147736,41,L,0
147736,122,P,0
147736,142,M,0
147736,162,C,0
147736,178,L,0
147736,203,K,0
147736,207,E,0
147736,210,W,0
147736,211,K,0
147736,215,S,0
147736,241,I,0
147737,35,D,0
147737,36,I,0
147737,37,E,0
147737,62,V,0
147737,63,P,0
147737,64,M,0
147738,35,E,0
147738,39,A,0
147738,41,L,0
147738,122,P,0
147738,142,M,0
147738,162,C,0
147738,178,L,0
147738,203,K,0
147738,207,E,0
147738,210,W,0
147738,211,K,0
147738,215,S,0
147738,241,I,0
147739,10,I,0
147739,14,R,0
147739,35,D,0
147739,37,D,0
147739,63,P,0
147739,93,L,0
147740,174,K,0
147740,207,E,0
147740,211,G,1
147740,245,M,0
147741,10,V,0
147741,15,V,0
147741,19,V,0
147741,57,K,0
147741,63,P,0
147741,93,L,0
147742,98,S,0
147742,102,R,0
147742,122,E,0
147742,173,Q,0
147742,207,E,0
147743,15,V,0
147743,36,I,0
147743,41,K,0
147743,64,V,0
147743,69,K,0
147743,93,L,0
147744,35,T,0
147744,36,A,0
147744,39,E,0
147744,49,R,0
147744,98,S,0
147744,122,E,0
147744,123,S,0
147744,173,A,0
147744,174,K,0
147744,177,E,0
147744,200,A,0
147744,207,E,0
147744,208,Y,0
147744,211,K,0
147744,245,Q,0
147745,12,P,0
147745,14,R,0
147745,63,C,0
147745,93,L,0
147746,26,F,1
147746,99,X,0
147746,122,E,0
147746,142,V,0
147746,178,M,0
147746,207,E,0
147747,12,K,0
147747,41,K,0
147747,46,I,0
147747,63,C,0
147747,72,T,0
147747,77,I,1
147747,93,L,0
147748,32,N,0
147748,35,I,0
147748,122,E,0
147748,135,R,0
147748,162,C,0
147748,174,K,0
147748,207,E,0
147748,211,K,0
147749,10,V,0
147749,15,V,0
147749,36,I,0
147749,63,C,0
147750,123,E,0
147750,135,T,0
147750,162,C,0
147750,177,E,0
147750,215,D,0
147751,15,V,0
147751,35,D,0
147751,37,D,0
147751,63,V,0
147751,93,L,0
147752,49,R,0
147752,60,I,0
147752,83,K,0
147752,135,T,0
147752,195,L,0
147752,200,A,0
147752,211,K,0
147753,41,K,0
147753,46,I,0
147753,63,C,0
147753,72,T,0
147753,77,I,0
147753,93,L,0
147754,22,N,1
147754,23,R,1
147754,121,Y,0
147754,122,E,0
147754,174,R,0
147754,178,M,0
147754,207,E,0
147754,211,K,0
147754,246,M,0
147755,13,V,0
147755,14,R,0
147755,29,E,1
147755,35,D,0
147755,36,I,0
147755,41,K,0
147755,57,K,0
147755,59,H,1
147755,60,E,0
147755,67,Y,0
147755,69,K,0
147755,89,M,0
147756,10,V,0
147756,15,V,0
147756,19,V,0
147756,41,K,0
147756,57,K,0
147756,63,P,0
147756,93,L,0
147757,98,S,0
147757,102,R,0
147757,122,E,0
147757,167,V,1
147757,173,Q,0
147757,207,E,0
147758,13,V,0
147758,35,D,0
147758,36,I,0
147758,41,K,0
147758,57,K,0
147758,60,E,0
147758,69,K,0
147758,89,M,0
147758,93,L,0
147759,35,T,0
147759,40,D,0
147759,49,R,0
147759,60,I,0
147759,122,E,0
147759,135,T,0
147759,177,E,0
147759,178,M,0
147759,207,E,0
147759,211,K,0
147759,218,E,1
147759,244,V,0
147759,245,E,0
147759,250,E,0
147760,33,V,0
147760,37,C,0
147760,63,P,0
147760,93,L,0
147761,20,R,0
147761,35,I,0
147761,60,I,0
147761,83,K,0
147761,123,E,0
147761,177,E,0
147761,200,G,0
147761,211,K,0
147761,228,R,1
147762,37,S,0
147762,63,P,1
147762,64,V,0
147762,77,I,0
147762,93,L,0
147763,26,F,1
147763,135,V,0
147763,162,C,0
147763,218,E,0
147763,252,S,1
147764,12,S,0
147764,15,V,0
147764,19,I,0
147764,37,S,0
147764,41,K,0
147764,69,K,0
147764,77,I,0
147764,89,M,0
147764,93,L,0
147765,35,T,0
147765,36,A,0
147765,39,E,0
147765,48,T,0
147765,122,A,0
147765,173,A,0
147765,174,K,0
147765,177,E,0
147765,200,A,0
147765,207,E,0
147765,245,K,0
147765,250,E,0
147766,12,S,0
147766,15,V,0
147766,19,V,0
147766,36,L,0
147766,41,K,0
147766,60,E,0
147766,69,R,0
147766,89,M,0
147766,93,L,0
147767,35,T,0
147767,36,A,0
147767,39,E,0
147767,40,D,0
147767,118,I,0
147767,122,E,0
147767,123,S,0
147767,138,A,0
147767,142,V,0
147767,173,T,0
147767,174,K,0
147767,200,A,0
147767,207,E,0
147767,214,L,0
147767,245,Q,0
147767,248,Q,1
147767,252,stop,1
147768,10,I,0
147768,36,I,0
147768,45,R,0
147768,62,V,0
147768,63,P,0
147768,77,I,0
147768,82,I,0
147768,93,L,0
147768,94,H,0
147769,35,Q,0
147769,36,I,0
147769,37,E,0
147769,62,V,0
147769,63,P,0
147769,72,V,0
147769,93,L,0
147770,41,L,0
147770,106,I,0
147770,122,P,0
147770,162,C,0
147770,207,K,0
147770,208,Y,0
147770,210,W,0
147770,211,K,0
147770,215,S,0
147770,241,I,0
147771,10,V,0
147771,15,V,0
147771,36,I,0
147771,63,C,0
147771,72,T,0
147771,93,L,0
147772,89,M,0
147773,175,H,0
147773,214,L,0
147773,245,K,0
147774,10,I,0
147774,13,V,0
147774,17,E,0
147774,20,I,0
147774,36,I,0
147774,41,K,0
147774,46,I,0
147774,54,V,0
147774,60,E,0
147774,66,F,0
147774,69,R,0
147774,82,T,0
147774,84,V,0
147774,89,M,0
147775,20,R,0
147775,27,S,0
147775,35,T,0
147775,36,D,0
147775,122,E,0
147775,135,V,0
147775,162,A,0
147775,173,T,0
147775,174,K,0
147775,177,E,0
147775,184,V,0
147775,200,A,0
147775,207,E,0
147775,214,L,0
147775,245,Q,0
147776,35,D,0
147776,64,V,0
147776,82,I,0
147777,83,K,0
147777,123,E,0
147777,166,R,0
147777,211,K,0
147777,245,Q,0
147778,10,I,0
147778,19,I,0
147778,35,D,0
147778,63,P,0
147778,67,Y,0
147778,93,L,0
147779,35,I,0
147779,142,T,1
147779,162,T,0
147779,178,M,0
147779,211,A,0
147780,15,V,0
147780,19,T,0
147781,123,E,0
147781,135,T,0
147781,162,C,0
147781,210,W,1
147781,211,K,0
147781,248,D,1
147782,14,R,1
147782,64,V,0
147783,21,I,0
147783,135,T,0
147783,142,V,0
147783,158,S,0
147783,162,A,0
147783,169,D,0
147783,196,E,0
147783,215,S,0
147784,4,P,0
147784,10,V,0
147784,13,V,0
147784,15,V,0
147784,35,D,0
147784,36,I,0
147784,46,V,0
147784,63,S,0
147785,64,R,0
147785,130,L,1
147785,174,H,0
147785,211,K,0
147785,245,E,0
147786,35,D,0
147786,37,H,0
147786,39,S,0
147786,41,K,0
147786,62,V,0
147786,63,P,0
147787,202,V,0
147787,211,K,0
147787,214,L,0
147788,14,R,1
147788,64,V,0
147789,100,stop,0
147789,135,T,0
147789,142,V,0
147789,158,S,0
147789,162,A,0
147789,169,D,0
147789,196,E,0
147789,215,S,0
147790,12,S,0
147790,37,Y,0
147790,62,V,0
147790,77,I,0
147790,93,L,0
147791,20,R,0
147791,83,K,0
147791,162,T,0
147791,166,R,0
147791,211,K,0
147791,215,E,0
147791,245,E,0
147792,89,M,0
147793,175,H,0
147793,214,L,0
147793,245,K,0
147794,35,D,0
147794,37,H,0
147794,39,S,0
147794,41,K,0
147794,62,V,0
147794,63,P,0
147795,202,V,0
147795,204,D,0
147795,211,K,0
147795,214,L,0
147796,10,V,0
147796,13,V,0
147796,14,R,0
147796,35,D,0
147796,36,I,0
147796,41,K,0
147796,69,K,0
147796,89,M,0
147797,6,G,0
147797,11,A,0
147797,35,T,0
147797,36,A,0
147797,39,K,0
147797,43,E,0
147797,106,I,0
147797,122,E,0
147797,123,G,0
147797,135,T,0
147797,162,Y,0
147797,173,S,0
147797,177,E,0
147797,179,I,0
147797,207,A,0
147797,211,S,0
147797,214,L,0
147797,245,Q,0
147798,15,V,0
147798,19,Q,0
147798,36,I,0
147798,63,C,0
147798,93,L,0
147799,14,R,0
147799,36,I,0
147799,37,D,0
147799,62,V,0
147799,63,C,0
147799,72,V,0
147799,93,L,1
147800,53,D,0
147800,121,Y,0
147800,122,X,0
147800,137,H,1
147800,162,C,0
147800,248,D,1
147801,15,V,0
147801,35,D,0
147801,37,D,0
147801,63,P,0
147801,93,L,0
147802,135,T,0
147802,162,C,0
147802,195,T,0
147802,214,L,0
147803,35,stop,1
147803,37,S,0
147803,42,L,1
147803,46,I,0
147803,48,H,0
147803,49,P,0
147803,51,P,0
147803,52,H,0
147803,56,I,0
147803,57,I,0
147803,65,stop,0
147803,68,A,0
147803,71,S,0
147803,73,R,0
147803,75,I,0
147803,77,I,0
147803,78,P,0
147803,82,L,0
147803,86,P,0
147803,90,F,0
147803,92,H,0
147803,94,R,0
147804,3,T,0
147804,6,Q,0
147804,8,I,0
147804,10,L,0
147804,13,N,0
147804,15,P,0
147804,16,I,0
147804,17,H,0
147804,18,A,0
147804,21,L,0
147804,23,P,1
147804,24,S,0
147804,26,F,0
147804,28,Q,0
147804,29,Q,0
147804,36,H,0
147804,40,K,0
147804,41,I,0
147804,42,Q,0
147804,45,P,0
147804,47,M,0
147804,51,P,0
147804,83,K,0
147804,122,E,0
147804,165,I,0
147804,200,E,0
147804,202,V,0
147804,207,E,0
147805,31,P,0
147805,32,A,0
147805,33,I,0
147805,37,S,0
147805,42,C,1
147805,43,Q,1
147805,44,L,1
147805,45,stop,0
147805,46,I,0
147805,48,A,1
147805,49,V,1
147805,53,L,1
147805,54,A,0
147805,55,N,0
147805,56,P,0
147805,61,H,0
147805,62,K,0
147805,63,C,0
147805,65,stop,1
147805,70,Q,0
147806,162,C,0
147806,211,K,0
147807,19,V,0
147807,36,I,0
147807,41,K,0
147807,63,P,1
147807,69,K,0
147807,89,M,0
147807,93,L,0
147808,6,D,0
147808,20,R,0
147808,35,T,0
147808,36,A,0
147808,39,E,0
147808,48,T,0
147808,122,E,0
147808,123,G,0
147808,173,A,0
147808,174,K,0
147808,177,E,0
147808,196,V,0
147808,200,A,0
147808,207,E,0
147808,245,Q,0
147809,12,E,0
147809,35,D,0
147809,63,P,0
147809,70,N,0
147809,93,L,0
147810,13,V,0
147810,19,Q,0
147810,35,D,0
147810,36,I,0
147810,41,K,0
147810,57,K,0
147810,63,P,0
147810,69,K,0
147810,70,R,0
147810,89,M,0
147811,12,S,0
147811,19,I,0
147811,57,K,0
147811,63,C,0
147811,71,T,0
147812,135,T,0
147812,162,C,0
