isolate_id,position,amino_acid
146990,10,I
146990,33,I
146990,63,P
146990,93,L
146991,35,I
146991,69,N
146991,83,K
146991,207,E
146991,211,K
146991,247,R
146992,8,P
146992,16,R
146992,18,P
146992,30,H
146992,35,H
146992,37,D
146992,63,P
146992,93,L
146993,26,F
146993,40,A
146993,70,Q
146993,162,C
146993,211,K
146994,16,A
146994,30,E
146994,41,K
146994,48,C
146994,64,V
146995,122,E
146995,173,T
146995,177,E
146995,200,A
146995,207,G
146995,211,K
146996,35,N
146996,37,D
146996,63,P
146996,88,Y
146996,93,L
146997,162,C
146997,203,G
146997,211,K
146998,2,K
146998,15,V
146998,36,I
146998,37,D
146998,63,C
146998,93,L
146999,121,Y
146999,122,E
146999,135,T
146999,162,C
146999,177,E
146999,189,I
147000,14,D
147000,19,T
147000,37,Q
147000,63,P
147000,65,K
147000,70,T
147001,26,F
147001,50,V
147001,83,K
147001,162,C
147001,211,K
147001,249,N
147002,7,P
147002,35,N
147002,37,P
147002,47,M
147002,57,K
147002,61,K
147002,63,P
147002,64,V
147002,93,L
147002,95,stop
147003,6,D
147003,17,G
147003,62,P
147003,98,G
147003,186,E
147003,200,E
147003,207,E
147003,211,K
147004,15,V
147004,35,T
147004,36,I
147004,41,K
147004,62,V
147004,63,P
147005,64,R
147005,113,Y
147005,135,T
147005,200,A
147005,214,L
147006,13,V
147006,37,D
147006,63,P
147006,64,L
147006,72,V
147007,35,I
147007,83,K
147007,99,X
147007,102,Q
147007,115,C
147007,121,H
147007,122,E
147007,135,R
147007,154,E
147007,162,Y
147007,199,I
147007,211,G
147007,229,L
147007,241,L
147007,250,E
147008,12,P
147008,61,K
147008,63,Q
147008,65,D
147008,77,I
147008,93,L
147009,211,K
147010,63,P
147010,64,V
147010,83,K
147011,60,I
147011,67,X
147011,102,Q
147011,123,E
147011,138,A
147011,142,T
147011,162,C
147011,173,T
147011,196,E
147011,248,D
147012,2,K
147012,12,N
147012,14,R
147012,25,K
147012,35,N
147012,37,D
147012,43,N
147012,59,F
147012,60,G
147012,63,P
147012,67,S
147013,83,K
147013,122,E
147013,123,N
147013,135,T
147013,173,R
147013,174,K
147013,178,M
147013,211,K
147014,10,V
147014,37,S
147014,62,V
147014,63,P
147014,93,L
147015,14,T
147015,35,I
147015,138,A
147015,142,T
147015,162,C
147015,211,K
147016,25,E
147016,36,I
147016,41,K
147016,57,K
147017,5,V
147017,35,T
147017,39,K
147017,60,I
147017,162,C
147017,211,K
147018,25,E
147018,36,I
147018,41,K
147018,57,T
147018,92,K
147019,5,V
147019,35,T
147019,39,K
147019,53,Q
147019,60,I
147019,135,V
147019,177,E
147019,204,K
147019,207,E
147019,245,I
147019,250,E
147019,251,N
147020,83,K
147020,92,K
147021,26,F
147021,35,I
147021,44,D
147021,49,R
147021,62,T
147021,83,N
147021,113,Y
147021,123,E
147021,165,I
147021,169,D
147021,178,L
147021,202,V
147022,8,P
147022,10,V
147022,11,L
147022,37,S
147022,62,V
147022,63,P
147022,93,L
147023,14,T
147023,26,F
147023,35,I
147023,142,N
147023,162,C
147023,200,I
147023,207,P
147023,245,E
147023,246,W
147023,247,R
147023,250,E
147024,10,I
147024,13,V
147024,15,V
147024,35,D
147024,37,D
147024,57,K
147024,62,V
147024,63,S
147024,71,V
147024,72,M
147024,93,L
147025,122,E
147025,135,T
147025,162,C
147025,200,A
147025,248,D
147026,13,V
147026,20,R
147026,36,I
147026,41,K
147026,62,V
147026,63,P
147026,69,K
147026,89,M
147026,93,L
147027,24,C
147027,35,T
147027,36,A
147027,39,E
147027,43,R
147027,45,X
147027,122,E
147027,123,G
147027,158,S
147027,173,V
147027,174,K
147027,177,E
147027,184,V
147027,200,A
147027,207,E
147027,245,K
147027,249,Q
147028,13,V
147028,35,D
147028,36,I
147028,37,D
147028,41,K
147028,57,K
147028,60,E
147028,69,K
147028,89,M
147029,35,T
147029,60,I
147029,108,I
147029,121,Y
147029,122,E
147029,123,E
147029,177,E
147029,179,E
147029,207,E
147029,211,K
147029,245,E
147030,13,V
147030,35,D
147030,36,I
147030,37,D
147030,41,K
147030,57,K
147030,60,E
147030,69,K
147030,89,M
147031,35,T
147031,53,Q
147031,60,I
147031,108,I
147031,119,T
147031,121,Y
147031,122,E
147031,123,E
147031,126,T
147031,132,M
147031,134,G
147031,135,R
147031,137,G
147031,145,stop
147031,147,D
147031,159,V
147031,162,G
147031,163,G
147031,164,V
147031,166,I
147031,168,stop
147031,177,E
147031,179,E
147031,181,S
147031,187,W
147031,188,S
147031,195,V
147031,207,G
147031,211,K
147031,214,X
147031,245,E
147032,3,V
147032,10,V
147032,18,E
147032,28,G
147032,37,S
147032,58,P
147032,63,P
147032,77,I
147032,79,S
147032,93,L
147033,14,T
147033,35,E
147033,49,R
147033,83,K
147033,142,T
147033,207,R
147033,245,K
147034,2,K
147034,6,S
147034,11,L
147034,15,V
147034,18,H
147034,34,stop
147034,36,I
147034,38,F
147034,41,K
147034,42,L
147034,46,I
147034,58,N
147034,60,S
147034,69,K
147034,73,R
147034,75,L
147034,82,I
147034,86,stop
147034,89,M
147034,93,L
147034,97,V
147035,4,S
147035,26,F
147035,27,K
147035,35,T
147035,36,A
147035,39,E
147035,42,D
147035,43,T
147035,53,Q
147035,70,Q
147035,122,E
147035,123,S
147035,158,S
147035,173,A
147035,174,R
147035,177,E
147035,178,M
147035,200,A
147035,207,E
147035,243,A
147035,245,Q
147036,2,K
147036,11,L
147036,15,V
147036,18,H
147036,36,I
147036,38,F
147036,41,K
147036,42,L
147036,46,I
147036,58,N
147036,60,S
147036,69,K
147036,73,R
147036,75,L
147036,82,I
147036,93,L
147036,97,V
147037,27,K
147037,35,T
147037,36,A
147037,39,E
147037,42,D
147037,43,T
147037,122,E
147037,177,E
147038,35,D
147038,37,D
147038,63,P
147038,64,L
147039,69,S
147039,162,C
147039,211,K
147039,251,T
147040,63,P
147041,179,I
147041,200,A
147041,211,K
147041,250,Y
147042,63,P
147043,179,I
147043,211,K
147043,250,Y
147044,41,K
147044,64,V
147045,142,T
147045,165,I
147045,202,V
147045,204,D
147046,6,stop
147046,12,A
147046,64,V
147047,6,D
147047,70,E
147047,99,A
147047,165,I
147047,200,A
147047,202,V
147047,251,I
147048,15,V
147048,35,T
147048,36,I
147048,41,K
147048,62,V
147048,63,P
147049,26,F
147049,64,R
147049,135,T
147049,200,A
147049,214,L
147049,248,D
147050,36,I
147050,37,S
147050,63,P
147050,69,Q
147051,35,I
147051,83,K
147051,98,G
147051,135,T
147051,202,V
147051,211,K
147051,245,Q
147051,250,E
147052,13,V
147052,63,P
147052,93,L
147053,28,G
147053,35,I
147053,83,K
147053,113,H
147053,122,E
147053,135,T
147053,162,C
147053,194,D
147053,200,A
147053,207,E
147053,211,K
147054,12,N
147054,14,R
147054,25,E
147054,29,G
147054,35,N
147054,37,D
147054,63,P
147054,67,S
147055,83,K
147055,122,E
147055,123,N
147055,135,T
147055,173,R
147055,174,K
147055,178,M
147055,211,K
147055,245,I
147057,83,K
147057,122,E
147057,123,N
147057,135,T
147057,173,R
147057,174,K
147057,178,M
147057,211,K
147058,8,stop
147058,19,Q
147058,35,D
147058,37,S
147058,41,K
147058,62,M
147058,63,P
147058,71,V
147058,82,I
147058,93,L
147059,20,R
147059,99,X
147059,123,E
147059,166,R
147059,245,K
147059,250,E
147060,19,Q
147060,35,D
147060,37,S
147060,41,K
147060,62,M
147060,63,P
147060,71,V
147060,82,I
147060,93,L
147061,20,R
147061,123,E
147061,166,R
147061,245,K
147061,250,E
147062,57,K
147062,60,E
147062,64,V
147062,77,I
147063,122,E
147063,211,K
147064,36,I
147064,37,D
147064,59,F
147064,62,V
147064,63,C
147064,72,V
147064,93,L
147065,53,H
147065,121,Y
147065,122,E
147065,162,C
147066,36,I
147066,37,D
147066,59,F
147066,62,V
147066,63,C
147066,72,V
147066,93,L
147067,121,Y
147067,122,E
147067,162,C
147068,15,V
147068,36,I
147068,41,K
147068,46,L
147068,77,I
147069,20,R
147069,35,I
147069,60,I
147069,83,K
147069,135,T
147069,195,L
147069,245,E
147069,249,Q
147070,15,V
147070,36,I
147070,41,K
147071,60,I
147071,83,K
147071,135,T
147071,195,L
147072,18,H
147072,35,D
147072,63,P
147072,93,L
147073,162,C
147073,178,M
147073,211,N
147074,62,V
147074,63,P
147074,71,V
147074,77,I
147074,79,S
147074,93,L
147075,122,E
147075,196,E
147075,207,E
147075,245,E
147076,62,V
147076,63,P
147076,71,V
147076,77,I
147076,79,S
147076,93,L
147077,122,E
147077,196,E
147077,207,E
147077,245,E
147078,2,K
147078,5,V
147078,6,S
147078,13,M
147078,25,N
147078,29,G
147078,37,T
147078,54,L
147078,58,R
147078,59,F
147078,60,V
147078,63,P
147078,66,V
147078,84,M
147078,88,S
147078,92,R
147078,93,L
147079,22,P
147079,23,P
147079,32,Q
147079,67,N
147079,113,H
147079,139,I
147079,153,C
147079,180,M
147079,182,stop
147079,189,I
147079,196,K
147079,207,E
147079,211,S
147079,217,Q
147079,223,I
147079,243,L
147079,247,L
147079,248,D
147081,113,H
147081,139,I
147081,180,M
147081,189,I
147081,196,K
147081,207,E
147081,211,S
147081,217,Q
147081,243,L
147081,248,D
147082,12,N
147082,14,R
147082,35,D
147082,37,D
147082,63,P
147082,67,S
147083,83,K
147083,122,E
147083,123,N
147083,135,T
147083,162,C
147083,173,R
147083,174,K
147083,178,M
147083,200,I
147083,211,K
147084,12,N
147084,14,R
147084,35,D
147084,37,D
147084,63,P
147084,67,S
147085,83,K
147085,122,E
147085,123,N
147085,135,T
147085,162,C
147085,173,R
147085,174,K
147085,178,M
147085,200,I
147085,211,K
147086,33,V
147086,37,S
147086,39,S
147086,41,K
147086,48,R
147086,60,E
147086,63,P
147086,64,V
147087,6,D
147087,26,F
147087,57,K
147087,86,E
147087,113,Y
147087,122,P
147087,123,E
147087,162,Y
147087,207,E
147088,33,V
147088,37,S
147088,39,S
147088,41,K
147088,48,R
147088,64,V
147089,6,D
147089,26,F
147089,57,K
147089,86,E
147089,113,Y
147089,122,P
147089,123,E
147089,162,Y
147089,207,E
147090,35,D
147090,36,I
147090,37,D
147090,60,A
147090,62,V
147090,63,P
147090,93,L
147091,53,stop
147091,113,Y
147091,162,C
147091,200,A
147091,245,E
147092,2,K
147092,15,V
147092,59,S
147093,64,R
147093,113,Y
147093,122,V
147093,135,V
147093,165,I
147094,15,V
147095,64,R
147095,113,Y
147095,122,V
147095,135,V
147095,165,I
147096,14,R
147096,42,C
147096,61,E
147096,62,V
147096,63,P
147096,77,I
147096,91,K
147096,93,L
147097,113,N
147097,178,M
147097,211,K
147097,245,K
147097,251,N
147098,14,R
147098,42,C
147098,61,E
147098,62,V
147098,63,P
147098,77,I
147098,93,L
147099,113,N
147099,178,M
147099,211,K
147099,245,K
147100,10,V
147100,12,P
147100,15,V
147100,24,stop
147100,36,I
147100,37,S
147100,63,T
147100,72,K
147101,211,K
147102,10,V
147102,12,P
147102,15,V
147102,36,I
147102,37,S
147102,63,T
147102,72,K
147103,211,K
147104,36,I
147104,47,M
147104,61,K
147104,64,V
147105,102,Q
147105,135,T
147105,162,C
147105,211,K
147105,245,M
147106,12,P
147106,14,R
147106,37,T
147106,57,K
147106,62,V
147106,63,P
147106,93,L
147107,60,I
147107,135,T
147107,207,R
147107,210,W
147107,211,K
147107,245,M
147108,2,K
147108,15,V
147108,41,K
147108,63,T
147108,77,I
147108,93,L
147109,20,R
147109,28,K
147109,35,I
147109,83,K
147109,135,T
147109,245,E
147110,2,K
147110,15,V
147110,41,K
147110,63,T
147110,77,I
147110,93,L
147111,20,R
147111,28,K
147111,35,I
147111,83,K
147111,135,T
147112,37,D
147112,63,P
147112,71,T
147112,77,I
147112,93,L
147113,123,E
147113,162,C
147113,173,R
147113,177,E
147113,196,E
147113,207,S
147113,211,K
147114,15,V
147114,41,K
147114,63,T
147114,77,I
147115,20,R
147115,35,I
147115,60,I
147115,83,K
147115,135,T
147115,195,L
147115,245,E
147116,35,D
147116,36,I
147116,37,D
147116,63,P
147116,71,T
147116,77,I
147116,93,L
147117,20,R
147117,98,S
147117,123,E
147117,165,I
147117,169,D
147117,174,K
147117,196,E
147117,200,A
147117,202,V
147117,211,K
147117,214,L
147118,15,V
147118,36,I
147118,41,K
147118,69,K
147118,82,I
147118,89,M
147118,93,L
147119,35,T
147119,36,A
147119,39,E
147119,43,R
147119,122,E
147119,123,S
147119,158,S
147119,173,A
147119,174,R
147119,177,E
147119,178,M
147119,200,A
147119,207,E
147119,243,S
147119,245,Q
147120,35,D
147120,37,D
147120,63,P
147120,64,L
147121,69,S
147121,162,C
147121,211,K
147122,15,V
147122,35,D
147122,36,I
147122,41,K
147122,63,C
147122,93,L
147123,123,E
147123,135,T
147123,162,C
147124,15,V
147124,35,T
147124,36,I
147124,41,K
147124,62,V
147124,63,P
147125,64,R
147125,135,T
147125,200,A
147125,214,L
147125,248,D
147126,36,I
147126,62,V
147126,63,H
147127,122,E
147127,211,K
147127,214,L
147127,248,D
147128,37,S
147128,63,C
147128,92,K
147129,6,D
147129,135,T
147129,162,C
147130,63,P
147131,179,I
147131,200,A
147131,211,K
147132,15,V
147132,57,K
147132,60,E
147132,61,E
147132,63,P
147133,35,T
147133,98,S
147133,122,E
147133,135,T
147133,211,K
147134,35,D
147134,36,I
147134,37,D
147134,62,V
147134,63,P
147134,93,L
147135,162,C
147135,200,A
147135,203,G
147135,245,E
147136,13,V
147136,37,S
147136,64,V
147136,93,L
147137,135,T
147137,162,C
147137,245,K
147138,36,I
147138,37,S
147138,63,P
147138,69,Q
147138,70,R
147139,24,C
147139,26,S
147139,27,K
147139,35,I
147139,83,K
147139,135,T
147139,166,R
147139,202,V
147139,211,K
147139,245,Q
147140,33,I
147140,37,T
147140,63,P
147140,93,L
147141,47,M
147141,69,S
147141,196,K
147141,207,A
147141,214,L
147142,35,D
147142,37,D
147142,63,P
147142,71,T
147142,77,I
147142,93,L
147143,123,E
147143,162,C
147143,173,R
147143,196,E
147143,207,A
147143,211,K
147144,14,R
147144,36,I
147144,57,K
147144,64,V
147144,72,V
147145,102,Q
147145,121,Y
147145,122,E
147145,135,T
147145,162,C
147145,211,K
147145,245,I
147146,12,S
147146,15,V
147146,19,I
147146,36,I
147146,41,K
147146,55,R
147146,63,P
147146,69,K
147146,89,M
147146,93,L
147147,35,T
147147,36,A
147147,39,E
147147,98,S
147147,122,E
147147,123,S
147147,173,A
147147,177,E
147147,200,A
147147,207,E
147147,245,Q
147148,15,V
147148,35,T
147148,36,I
147148,41,K
147148,62,V
147148,63,P
147149,64,R
147149,135,T
147149,200,A
147149,214,L
147149,248,D
147150,36,I
147150,37,D
147150,62,V
147150,63,C
147150,68,E
147150,71,V
147150,77,I
147150,93,L
147151,53,D
147151,121,Y
147151,122,E
147151,162,C
147152,10,V
147152,37,S
147152,62,V
147152,63,P
147152,93,L
147153,14,T
147153,35,I
147153,142,N
147153,162,C
147153,200,I
147154,12,S
147154,20,E
147154,21,V
147154,36,I
147154,41,K
147154,43,N
147154,63,P
147154,69,K
147154,89,M
147154,93,L
147154,97,T
147154,98,K
147155,23,R
147155,35,Q
147155,39,K
147155,98,S
147155,122,E
147155,123,S
147155,158,S
147155,173,A
147155,177,E
147155,200,A
147155,207,E
147155,245,Q
147156,2,L
147156,13,V
147156,35,D
147156,36,I
147156,41,K
147156,69,K
147156,89,M
147156,90,F
147157,6,D
147157,11,T
147157,21,I
147157,35,T
147157,39,N
147157,60,I
147157,122,E
147157,123,S
147157,173,I
147157,174,K
147157,177,E
147157,200,I
147157,207,N
147157,211,S
147157,238,R
147157,245,E
147158,13,V
147158,63,P
147158,93,L
147159,28,G
147159,35,I
147159,53,D
147159,100,stop
147159,122,E
147159,135,T
147159,162,C
147159,194,D
147159,196,E
147159,200,A
147159,207,E
147159,211,K
147160,37,C
147160,57,K
147160,60,E
147160,64,V
147160,77,I
147161,122,E
147161,211,K
147162,36,I
147162,37,D
147162,62,V
147162,63,C
147162,93,L
147163,53,D
147163,121,Y
147163,122,E
147163,162,C
147164,10,V
147164,15,V
147164,36,I
147164,37,S
147164,63,T
147164,72,T
147165,211,K
147165,248,D
147166,14,R
147166,20,R
147166,41,K
147166,46,I
147166,70,R
147167,35,I
147167,83,K
147167,101,R
147167,123,E
147167,135,T
147167,162,C
147167,186,N
147167,200,I
147168,18,H
147168,26,R
147168,58,E
147168,63,P
147168,93,L
147169,24,stop
147169,26,I
147169,162,C
147169,178,M
147169,211,N
147171,122,P
147171,135,T
147171,162,C
147171,207,E
147171,214,L
147172,13,V
147172,15,L
147172,19,Q
147172,20,I
147172,21,T
147172,36,I
147172,41,K
147172,69,K
147172,82,I
147172,89,M
147173,6,D
147173,8,I
147173,11,T
147173,20,R
147173,35,T
147173,39,K
147173,43,E
147173,68,G
147173,122,E
147173,123,N
147173,135,T
147173,165,I
147173,173,I
147173,174,K
147173,177,E
147173,178,M
147173,200,A
147173,207,A
147173,211,S
147173,245,E
147174,36,I
147174,64,V
147175,102,Q
147175,135,T
147175,162,C
147175,197,Y
147175,211,K
147175,245,M
147176,37,S
147176,38,M
147176,62,V
147176,63,H
147177,19,A
147177,122,E
147177,123,E
147177,132,V
147177,177,E
147177,200,A
147177,211,G
147178,12,K
147178,15,V
147178,36,I
147178,37,D
147178,63,C
147178,93,L
147179,135,T
147179,162,C
147179,211,G
147179,233,D
147179,234,I
147180,35,D
147180,36,I
147180,37,D
147180,62,V
147180,63,P
147180,93,L
147181,162,C
147181,200,A
147181,245,E
147182,35,D
147182,45,R
147182,63,P
147182,77,I
147182,93,L
147183,102,R
147183,162,C
147183,173,E
147183,178,M
147183,211,K
147184,19,V
147184,35,D
147184,37,S
147184,38,V
147184,57,K
147184,63,P
147185,90,I
147185,171,Y
147185,174,K
147185,211,K
147185,245,M
147186,12,K
147186,15,V
147186,35,D
147186,37,E
147186,93,L
147187,64,R
147187,106,I
147187,135,T
147187,211,K
147187,214,L
147188,12,P
147188,14,R
147188,37,D
147188,63,P
147188,77,I
147188,93,L
147189,122,E
147189,123,N
147189,135,T
147189,169,D
147189,174,K
147189,196,E
147189,200,A
147189,203,D
147189,207,E
147189,214,L
147190,35,D
147190,36,I
147190,37,D
147190,62,V
147190,63,P
147190,93,L
147191,162,C
147191,200,A
147191,245,E
147192,10,V
147192,12,P
147192,15,V
147192,36,I
147192,37,S
147192,63,T
147192,72,T
147193,211,K
147193,248,D
147194,64,V
147194,69,Q
147194,77,I
147195,11,R
147195,20,R
147195,44,D
147195,83,K
147195,142,T
147195,211,K
147195,245,E
147196,13,V
147196,36,I
147196,63,P
147197,122,A
147197,142,T
147197,177,E
147197,178,M
147197,211,T
147197,245,T
147198,35,D
147198,37,D
147198,63,P
147198,64,L
147199,69,S
147199,162,C
147199,211,K
147200,36,I
147200,37,D
147200,39,S
147200,62,V
147200,63,C
147200,72,V
147200,93,L
147201,121,Y
147201,122,E
147201,162,C
147202,35,D
147202,37,D
147202,63,P
147202,64,L
147203,69,S
147203,162,C
147203,211,K
147204,13,V
147204,41,K
147204,63,P
147204,70,R
147204,72,V
147204,92,K
147205,35,I
147205,102,R
147205,123,E
147205,177,E
147205,211,K
147206,12,S
147206,15,V
147206,19,I
147206,36,I
147206,41,K
147206,61,K
147206,69,K
147206,89,M
147206,93,L
147207,35,T
147207,36,A
147207,39,E
147207,48,T
147207,122,E
147207,123,S
147207,135,T
147207,173,Q
147207,177,E
147207,200,A
147207,207,E
147207,245,T
147208,35,D
147208,36,I
147208,37,D
147208,63,P
147208,82,I
147208,93,L
147209,123,E
147209,142,T
147209,169,D
147209,177,E
147209,200,A
147209,211,K
147210,5,V
147210,7,E
147210,15,V
147210,36,I
147210,62,V
147210,63,C
147210,90,F
147211,32,R
147211,121,Y
147211,122,E
147211,123,N
147211,162,C
147211,204,G
147212,63,A
147212,64,V
147213,6,D
147213,87,L
147213,162,C
147213,200,V
147213,211,K
147214,11,L
147214,15,V
147214,35,D
147214,36,I
147215,46,P
147215,53,Q
147215,196,E
147215,214,L
147216,36,I
147216,63,C
147217,123,E
147217,162,C
147217,177,E
147217,224,D
147218,14,R
147218,35,D
147218,37,D
147219,22,R
147219,118,I
147219,122,E
147219,135,T
147219,165,I
147219,211,K
147219,214,L
147220,35,D
147220,37,D
147220,63,P
147220,64,L
147221,69,S
147221,70,R
147221,162,C
147221,211,K
147222,35,D
147222,37,S
147222,41,K
147222,57,K
147222,63,C
147222,64,V
147222,77,I
147223,49,R
147223,98,S
147223,162,C
147224,15,V
147224,35,D
147224,37,D
147224,62,V
147224,63,P
147224,72,M
147225,135,T
147225,162,C
147225,211,K
147226,35,D
147226,39,Q
147226,60,E
147226,63,P
147227,122,E
147227,123,S
147227,135,T
147227,162,C
147227,211,K
147228,15,V
147228,35,D
147228,41,K
147228,63,P
147228,93,L
147229,35,I
147229,86,G
147229,135,T
147229,169,D
147229,196,E
147229,200,A
147229,211,T
147229,214,L
147230,10,I
147230,13,V
147230,15,V
147230,41,K
147230,63,N
147230,64,V
147230,93,L
147231,123,E
147231,135,T
147231,142,V
147231,165,I
147231,196,E
147232,57,K
147232,63,P
147232,67,S
147232,93,L
147233,123,E
147233,135,T
147233,162,Y
147233,177,E
147233,195,L
147234,6,R
147234,64,V
147235,26,S
147235,60,I
147235,94,T
147235,102,Q
147235,123,E
147235,135,T
147235,162,Y
147235,177,E
147235,195,L
147236,12,S
147237,60,I
147237,135,V
147237,178,M
147237,200,A
147237,211,K
147238,35,D
147238,36,I
147238,57,K
147238,62,V
147238,63,P
147238,67,S
147239,20,Q
147239,123,E
147239,211,K
147239,245,E
147240,10,I
147240,13,V
147240,63,P
147240,67,Y
147241,35,I
147241,177,E
147241,178,M
147241,245,E
147242,12,S
147242,15,V
147242,19,I
147242,36,I
147242,41,K
147242,63,V
147242,69,K
147242,74,S
147242,89,M
147242,93,L
147243,20,R
147243,35,T
147243,36,A
147243,39,E
147243,40,D
147243,48,T
147243,122,E
147243,123,N
147243,173,A
147243,174,K
147243,200,A
147243,207,E
147243,211,K
147243,245,Q
147243,248,D
147243,250,E
147243,251,C
147244,36,I
147244,37,D
147244,41,K
147244,43,R
147244,63,P
147244,69,Y
147244,72,V
147244,92,K
147245,122,E
147245,174,R
147245,178,M
147245,207,E
147245,211,K
147246,35,D
147246,37,S
147246,41,K
147246,63,P
147246,77,I
147246,93,L
147247,102,Q
147247,118,I
147247,122,E
147247,174,G
147247,177,E
147247,200,A
147247,207,R
147247,211,Q
147247,214,L
147247,245,I
147248,63,S
147248,71,V
147248,72,T
147248,77,I
147248,93,L
147249,35,T
147249,48,T
147249,69,N
147249,123,E
147249,178,M
147249,196,E
147249,207,L
147249,211,K
147250,19,I
147250,63,C
147250,69,Q
147250,82,I
147251,6,D
147251,41,L
147251,123,E
147251,173,E
147251,178,M
147251,192,N
147251,208,Y
147251,210,W
147251,211,K
147251,215,D
147252,33,I
147252,37,S
147252,39,S
147252,63,P
147252,69,Y
147252,71,T
147252,77,I
147252,93,L
147253,11,R
147253,162,C
147253,178,L
147253,204,K
147253,207,E
147254,18,H
147254,35,D
147254,41,K
147254,63,P
147254,93,L
147255,35,I
147255,135,K
147255,162,C
147255,211,K
147256,35,D
147256,63,P
147257,40,D
147257,41,L
147257,60,I
147257,123,E
147257,158,S
147257,200,K
147257,215,S
147257,245,M
147258,63,P
147259,122,E
147259,123,S
147259,142,S
147259,197,E
147259,200,A
147259,207,E
147259,238,R
147259,245,M
147260,15,V
147260,37,C
147260,63,P
147261,20,R
147261,64,R
147261,122,E
147261,211,K
147262,12,S
147262,13,V
147262,36,I
147262,57,K
147262,63,P
147262,64,V
147263,35,I
147263,122,E
147263,123,G
147263,135,M
147263,179,I
147263,200,I
147263,250,E
147264,35,D
147264,63,P
147264,93,L
147265,100,W
147265,135,V
147265,162,C
147265,200,I
147266,19,Q
147266,63,P
147267,31,R
147267,35,I
147267,135,A
147267,245,R
147267,248,D
147268,13,V
147268,36,I
147268,41,K
147268,62,V
147268,63,P
147268,93,L
147269,135,V
147269,211,K
147269,245,R
147269,248,D
147270,19,Q
147270,63,P
147271,27,S
147271,31,R
147271,35,I
147271,122,E
147271,135,T
147271,228,R
147271,245,E
147272,36,I
147272,62,V
147272,63,C
147273,162,C
147274,63,C
147274,77,I
147274,93,L
147275,102,R
147275,106,I
147275,107,S
147275,135,T
147275,162,Y
147275,174,E
147275,179,I
147275,196,E
147275,211,G
147275,244,V
147276,4,S
147276,19,I
147276,63,H
147276,69,Q
147276,70,E
147276,71,T
147276,77,I
147276,93,L
147277,6,D
147277,123,E
147277,176,S
147277,178,M
147278,14,R
147278,15,V
147278,19,I
147278,35,D
147278,37,D
147279,211,K
147279,245,Q
147280,12,S
147280,15,V
147280,19,V
147280,36,I
147280,41,K
147280,69,K
147280,93,L
147281,6,D
147281,35,T
147281,39,E
147281,48,T
147281,60,I
147281,90,I
147281,108,G
147281,122,E
147281,123,G
147281,173,A
147281,174,R
147281,177,E
147281,200,A
147281,207,E
147281,211,K
147281,245,Q
147282,35,D
147282,41,K
147282,63,P
147282,77,I
147282,93,L
147283,118,I
147283,122,E
147283,142,M
147283,174,R
147283,177,E
147283,200,A
147283,207,G
147283,211,E
147283,214,L
147283,245,L
147284,12,P
147284,14,R
147284,16,E
147284,35,D
147284,37,C
147284,39,S
147284,41,K
147284,57,K
147284,62,V
147284,63,P
147284,71,T
147284,93,L
147285,98,S
147285,135,V
147285,166,R
147285,207,H
147285,211,K
147285,245,N
147286,12,S
147286,33,V
147286,62,V
147286,63,P
147286,64,V
147286,69,Y
147286,72,M
147287,27,S
147287,35,I
147287,83,K
147287,135,T
147287,138,A
147287,214,L
147288,10,I
147288,41,K
147288,62,V
147288,63,S
147288,93,L
147289,123,E
147289,179,I
147289,207,E
147290,63,P
147290,77,I
147290,93,L
147291,122,E
147291,123,E
147291,177,E
147291,178,M
147291,207,E
147291,245,M
147292,18,H
147292,35,D
147292,41,K
147292,63,P
147292,71,T
147292,93,L
147293,35,I
147293,101,R
147293,135,R
147293,162,C
147293,211,K
147293,241,I
147294,14,R
147294,35,D
147294,37,D
147294,57,K
147294,62,V
147294,63,S
147294,82,I
147294,93,L
147295,135,T
147295,142,T
147295,162,H
147295,211,G
147295,245,E
147296,63,P
147298,18,H
147298,35,D
147300,123,E
147300,135,T
147300,162,C
147300,224,D
147301,12,S
147301,13,V
147301,15,V
147301,19,I
147301,36,I
147301,41,K
147301,63,V
147301,64,M
147301,69,K
147301,89,M
147301,93,L
147302,35,T
147302,36,A
147302,39,E
147302,48,T
147302,122,E
147302,123,S
147302,135,T
147302,158,S
147302,173,A
147302,177,G
147302,200,A
147302,207,E
147302,245,Q
147302,250,E
147303,13,V
147303,20,R
147303,36,I
147303,41,K
147303,62,V
147303,63,P
147303,93,L
147304,135,V
147304,211,K
147304,245,R
147304,248,D
147305,15,V
147305,36,I
147305,41,K
147305,63,C
147305,77,I
147305,93,L
147306,123,E
147306,135,T
147306,162,C
147306,179,I
147307,15,V
147307,64,V
147308,8,I
147308,135,T
147308,162,C
147308,207,E
147309,10,I
147309,37,S
147309,62,V
147309,63,P
147309,82,I
147309,93,L
147309,94,H
147310,20,R
147310,32,R
147310,49,R
147310,122,E
147310,123,G
147310,207,E
147311,41,K
147311,63,C
147311,71,V
147311,93,L
147312,99,X
147312,102,R
147312,106,I
147312,107,S
147312,122,Q
147312,162,Y
147312,174,K
147312,178,M
147312,179,I
147312,196,E
147312,211,G
147313,36,I
147313,37,E
147313,62,V
147313,63,P
147313,69,Y
147313,93,L
147314,39,A
147314,41,L
147314,83,X
147314,101,R
147314,122,P
147314,162,C
147314,207,E
147314,210,W
147314,211,K
147314,215,S
147314,241,I
147315,62,V
147315,63,P
147315,93,L
147316,39,A
147316,83,K
147316,99,X
147316,123,E
147316,210,F
147317,13,V
147317,33,I
147317,37,S
147317,63,P
147317,65,D
147317,77,I
147318,35,I
147318,98,S
147318,135,T
147318,200,A
147318,211,K
147319,15,V
147319,41,K
147319,63,P
147319,77,I
147319,93,L
147320,35,I
147320,123,E
147320,162,C
147320,169,D
147320,178,L
147320,195,L
147320,200,A
147320,207,E
147320,211,K
147320,245,E
147321,12,E
147321,35,D
147321,62,V
147321,63,S
147321,93,L
147322,135,V
147322,142,T
147322,169,D
147322,200,A
147322,211,K
147322,214,L
147323,36,I
147323,62,V
147323,63,C
147323,93,L
147324,32,R
147324,103,R
147324,121,Y
147324,122,E
147324,123,G
147324,162,C
147325,33,I
147325,37,S
147325,39,S
147325,41,K
147325,60,E
147325,63,P
147325,71,T
147325,93,L
147326,6,D
147326,162,C
147326,173,R
147326,178,M
147326,194,D
147326,200,A
147326,245,E
147326,251,N
147327,122,E
147327,123,E
147327,135,T
147327,162,C
147327,211,K
147327,214,L
147328,19,I
147328,37,S
147328,41,K
147328,63,P
147328,77,I
147328,93,L
147329,6,D
147329,20,R
147329,135,V
147329,162,C
147329,177,E
147329,200,I
147329,211,G
147330,13,V
147330,14,R
147330,16,E
147330,20,I
147330,35,D
147330,36,I
147330,41,K
147330,64,M
147330,69,K
147330,70,R
147330,89,M
147331,35,T
147331,40,D
147331,49,R
147331,135,T
147331,162,A
147331,173,D
147331,174,K
147331,177,E
147331,200,A
147331,207,A
147331,211,K
147331,245,Q
147331,250,E
147332,60,E
147333,20,R
147333,123,E
147333,162,C
147333,177,E
147333,179,I
147333,200,A
147333,202,V
147333,204,G
147334,57,K
147335,35,I
147335,122,E
147335,123,N
147335,142,V
147335,177,E
147335,211,T
147335,245,M
147336,10,I
147336,14,R
147336,15,V
147336,35,D
147336,36,I
147336,63,P
147336,71,V
147336,84,V
147336,90,M
147336,93,L
147337,35,I
147337,39,S
147337,41,L
147337,69,N
147337,75,M
147337,77,L
147337,101,Q
147337,122,E
147337,123,E
147337,135,T
147337,173,E
147337,189,I
147337,190,S
147337,200,K
147337,207,E
147337,210,W
147337,215,Y
147337,245,Q
147338,15,V
147338,41,K
147338,63,P
147338,70,R
147338,93,L
147339,6,D
147339,35,T
147339,39,A
147339,64,R
147339,83,K
147339,99,X
147339,135,T
147339,245,E
147340,35,D
147340,37,S
147340,63,P
147341,53,D
147341,103,N
147341,123,E
147341,162,X
147341,166,R
147341,177,E
147341,211,K
147342,16,E
147343,83,K
147343,123,E
147343,135,V
147343,138,A
147343,162,C
147343,202,V
147343,211,K
147344,15,V
147344,37,S
147344,41,K
147344,63,A
147344,77,I
147344,93,L
147345,83,K
147345,98,S
147345,162,A
147345,200,A
147345,211,K
147345,238,S
147346,62,V
147346,63,P
147346,64,L
147346,77,I
147347,102,R
147347,123,E
147347,180,V
147347,207,E
147347,214,L
147348,10,I
147348,37,S
147348,41,K
147348,63,A
147348,93,L
147349,123,E
147349,135,T
147349,180,V
147349,207,A
147349,211,K
147349,245,K
147350,3,V
147350,10,I
147350,37,S
147350,63,C
147351,35,D
147351,37,S
147351,41,K
147351,63,P
147351,77,I
147351,93,L
147352,37,S
147352,63,C
147352,91,I
147352,92,R
147352,95,Y
147353,12,A
147353,63,S
147353,71,V
147353,72,T
147353,77,I
147353,93,L
147354,13,V
147354,35,D
147354,37,S
147354,62,V
147354,63,P
147355,124,V
147355,178,M
147355,200,A
147355,211,K
147355,245,K
147356,10,I
147356,14,R
147356,63,P
147356,72,V
147356,93,L
147357,36,I
147357,62,V
147357,63,P
147357,77,I
147357,93,L
147358,56,H
147358,70,N
147358,73,X
147358,83,K
147358,100,S
147358,135,T
147358,162,C
147358,233,X
147358,248,X
147359,12,A
147359,15,V
147359,35,D
147359,37,D
147359,63,P
147360,135,R
147360,162,C
147360,211,K
147360,244,V
147360,251,G
147361,12,P
147361,13,V
147361,33,V
147361,37,S
147361,39,S
147361,41,N
147361,60,E
147361,62,V
147361,64,V
147361,93,L
147362,35,I
147362,83,K
147362,123,E
147362,135,T
147362,177,E
147362,196,E
147362,211,K
147363,36,I
147363,62,V
147364,160,S
147364,208,Q
147364,227,S
147364,228,H
147365,103,N
147365,162,C
147365,211,K
147366,71,M
147366,83,K
147366,123,E
147366,177,E
147366,178,M
147366,207,K
147366,211,Q
147367,15,V
147367,36,I
147367,62,V
147367,63,P
147368,35,I
147368,83,K
147369,12,A
147369,63,P
147369,93,L
147370,83,K
147370,159,V
147370,166,R
147370,200,A
147371,15,V
147371,35,D
147371,63,P
147371,83,H
147372,41,L
147372,69,D
147372,83,K
147372,162,Y
147372,178,M
147372,200,A
147372,203,D
147372,211,K
147372,215,C
147373,35,D
147373,37,D
147373,63,P
147373,77,I
147373,93,L
147374,123,E
147374,135,T
147374,162,C
147374,211,K
147375,10,I
147375,13,V
147375,14,R
147375,15,V
147375,35,D
147375,36,I
147375,37,D
147375,41,K
147375,57,K
147375,61,E
147375,69,K
147375,89,M
147376,11,E
147376,35,T
147376,60,I
147376,121,H
147376,122,E
147376,123,S
147376,135,T
147376,165,I
147376,173,S
147376,174,K
147376,177,E
147376,179,I
147376,200,A
147376,207,A
147376,211,S
147376,250,E
147377,10,V
147377,13,V
147377,41,K
147377,63,S
147378,142,T
147378,200,A
147378,211,G
147379,63,F
147379,77,I
147379,93,L
147380,106,I
147380,107,S
147380,122,E
147380,123,A
147380,162,Y
147380,174,E
147380,179,I
147380,196,E
147380,211,G
147381,15,V
147381,37,S
147381,41,K
147381,63,A
147382,211,K
147382,245,K
147382,247,L
147383,35,D
147383,36,I
147383,37,D
147383,63,P
147383,93,L
147384,142,T
147384,169,D
147384,200,A
147384,211,Q
147385,10,I
147385,35,D
147385,37,D
147385,57,K
147385,63,P
147385,64,L
147385,77,I
147385,93,L
147386,11,R
147386,162,C
147386,211,K
147386,214,L
147387,13,T
147387,15,T
147387,16,E
147387,24,S
147387,33,S
147387,35,D
147387,36,T
147387,53,L
147387,59,H
147387,63,R
147387,64,T
147387,76,S
147387,84,T
147387,97,P
147388,10,A
147388,12,S
147388,102,M
147388,135,T
147388,162,C
147388,200,A
147388,211,K
147389,13,V
147389,63,S
147390,60,I
147390,98,S
147390,135,L
147390,211,K
147391,12,E
147391,19,I
147391,62,V
147391,63,H
147391,77,I
147391,93,L
147392,35,T
147392,98,S
147392,122,E
147392,135,T
147392,211,K
147392,245,E
147393,37,H
147393,62,V
147393,63,P
147393,77,I
147393,93,L
147394,98,S
147394,122,E
147394,123,N
147394,188,L
147394,207,E
147394,211,K
147394,248,D
147395,15,V
147395,37,S
147395,41,K
147396,15,V
147396,36,I
147396,37,S
147396,57,K
147396,62,V
147396,63,P
147396,72,T
147397,60,I
147397,142,T
147397,195,T
147397,250,E
147398,15,V
147398,35,D
147398,63,P
147399,35,D
147399,37,S
147399,41,K
147399,63,P
147399,77,I
147399,93,L
147400,26,F
147400,118,I
147400,123,E
147400,174,R
147400,177,E
147400,207,G
147400,211,K
147400,214,L
147400,245,I
147401,19,I
147401,35,D
147401,37,W
147401,41,K
147401,77,I
147401,93,L
147402,121,H
147402,122,E
147402,142,T
147402,178,M
147402,211,K
147403,15,V
147403,35,D
147403,37,E
147403,63,C
147404,11,Q
147404,135,T
147404,178,M
147404,202,V
147404,211,K
147405,35,D
147405,63,P
147406,21,I
147406,135,T
147406,138,A
147406,162,C
147406,197,P
147406,200,A
147407,10,V
147407,37,S
147407,62,V
147407,63,P
147407,93,L
147408,14,T
147408,35,I
147408,142,K
147408,162,C
147408,200,I
147408,211,G
147408,245,K
147408,251,C
147409,19,Q
147409,35,D
147409,37,S
147409,41,K
147409,63,P
147409,82,I
147409,93,L
147410,20,R
147410,123,E
147410,135,V
147410,166,R
147410,211,K
147410,245,K
147410,250,E
147411,57,K
147411,63,P
147411,93,L
147412,121,Y
147412,122,E
147412,135,T
147412,162,C
147412,173,R
147412,211,G
147412,214,L
147413,36,I
147413,41,K
147413,69,K
147414,83,K
147414,169,D
147414,200,A
147414,245,E
147415,72,V
147416,122,E
147416,166,R
147416,214,L
147416,245,T
147417,14,R
147417,64,V
147417,93,L
147418,22,X
147418,135,T
147418,207,E
147418,215,A
147419,13,V
147419,17,E
147419,35,N
147419,36,I
147419,37,D
147419,41,K
147419,57,K
147419,69,K
147419,89,M
147420,11,A
147420,35,T
147420,40,D
147420,60,I
147420,121,H
147420,122,E
147420,123,S
147420,162,C
147420,166,R
147420,173,A
147420,177,E
147420,200,A
147420,211,K
147420,245,Q
147421,41,K
147421,63,Q
147421,93,L
147422,97,X
147422,99,X
147422,189,I
147422,250,E
147423,14,R
147423,19,I
147423,36,L
147423,62,V
147423,63,C
147424,121,Y
147424,122,E
147424,162,C
147424,245,A
147425,37,I
147425,41,K
147425,63,S
147425,64,V
147426,15,V
147426,37,E
147426,93,L
147427,64,R
147427,122,E
147427,135,T
147427,169,D
147427,200,A
147427,211,K
147427,214,L
147428,35,D
147428,63,P
147428,93,L
147429,18,H
147429,35,D
147429,63,P
147429,71,V
147429,93,L
147430,12,A
147430,62,V
147430,63,P
147430,93,L
147431,162,C
147431,184,V
147431,200,A
147432,15,V
147432,36,I
147432,41,K
147432,69,K
147432,89,M
147432,93,L
147433,35,T
147433,36,A
147433,39,E
147433,98,S
147433,122,E
147433,123,S
147433,158,S
147433,173,A
147433,177,E
147433,200,A
147433,207,E
147433,211,K
147433,245,Q
147434,14,R
147434,33,V
147434,37,S
147434,41,K
147434,64,V
147434,93,L
147435,35,D
147435,39,Q
147435,41,K
147435,57,K
147435,63,P
147435,64,V
147435,69,Y
147436,122,E
147436,162,C
147437,12,I
147437,37,D
147437,62,V
147437,63,P
147437,69,N
147437,77,I
147438,37,S
147438,77,I
147438,93,L
147439,83,K
147439,122,E
147439,123,E
147439,135,V
147439,166,R
147440,13,V
147440,37,D
147440,39,S
147440,60,E
147440,63,P
147440,71,V
147440,77,I
147440,93,L
147441,20,R
147441,122,E
147441,123,N
147441,214,L
147442,35,D
147442,37,V
147442,41,K
147442,60,E
147442,63,P
147443,142,T
147443,211,G
147444,12,A
147444,35,D
147444,36,I
147444,37,D
147444,63,P
147444,93,L
147445,33,V
147445,200,A
147445,211,K
147446,36,I
147446,37,S
147446,63,C
147447,123,E
147447,162,C
147447,177,E
147447,200,A
147447,210,F
147447,224,D
147448,35,D
147448,37,D
147448,57,K
147448,62,V
147448,63,S
147448,82,I
147448,93,L
147449,142,T
147449,200,A
147450,63,S
147451,18,H
147451,35,D
147451,41,K
147451,63,P
147451,93,L
147452,101,R
147452,135,R
147452,162,C
147452,211,K
147453,37,D
147453,71,T
147454,14,R
147454,19,V
147454,63,P
147454,69,Q
147454,77,I
147454,92,K
147455,35,I
147455,39,I
147455,48,T
147455,83,K
147455,123,E
147455,135,T
147455,162,A
147455,178,M
147455,200,A
147455,207,E
147455,211,K
147455,245,K
147456,12,A
147456,35,D
147456,36,I
147456,37,D
147456,63,P
147456,93,L
147457,123,E
147457,135,T
147457,162,C
147458,16,E
147459,123,E
147459,138,A
147459,162,C
147459,177,E
147459,202,V
147459,211,K
147460,35,D
147460,37,S
147460,41,K
147460,62,V
147460,63,P
147460,71,V
147460,77,I
147460,93,L
147461,99,X
147461,101,N
147461,102,stop
147461,103,I
147461,104,I
147461,137,Y
147461,166,N
147461,174,R
147461,177,N
147461,211,E
147461,245,M
147462,36,I
147462,63,C
147462,93,L
147463,123,E
147463,162,C
147463,177,E
147463,211,K
147463,224,D
147464,15,V
147464,16,E
147464,36,I
147464,41,K
147464,66,L
147464,69,K
147464,89,M
147464,93,L
147465,35,T
147465,36,A
147465,39,E
147465,43,R
147465,122,E
147465,123,G
147465,135,T
147465,158,S
147465,173,A
147465,177,E
147465,200,A
147465,207,E
147465,245,Q
147466,36,I
147466,62,V
147466,63,C
147466,93,L
147467,162,G
147467,176,S
147467,186,E
147467,223,R
147468,35,D
147468,37,E
147468,41,K
147468,43,R
147468,63,P
147468,87,G
147468,92,K
147469,16,X
147469,21,I
147469,36,I
147469,37,D
147469,57,K
147469,63,P
147469,69,Y
147469,72,V
147470,60,I
147470,98,S
147470,123,E
147470,135,V
147470,142,V
147470,215,E
147470,245,T
147471,35,D
147471,36,I
147471,37,D
147471,63,P
147471,71,V
147471,93,L
147472,57,K
147472,63,P
147472,93,L
147473,63,Q
147473,64,V
147473,77,I
147474,20,R
147474,122,E
147474,135,T
147474,162,C
147474,207,E
147475,15,V
147475,20,R
147475,39,Q
147475,41,K
147475,63,P
147475,71,T
147475,93,L
147476,101,R
147476,122,E
147476,123,S
147476,162,N
147476,207,E
147476,211,K
147477,16,E
147477,35,D
147477,37,T
147477,62,V
147477,63,S
147477,64,V
147477,65,D
147477,72,V
147478,20,R
147478,99,X
147478,135,T
147478,138,A
147479,15,V
147479,36,I
147479,44,L
147479,62,V
147479,63,P
147479,65,stop
147479,72,V
147480,162,C
147480,174,K
147481,57,K
147481,63,P
147481,93,L
147482,204,K
147482,211,G
147482,214,L
147483,35,D
147483,37,Y
147483,41,K
147483,45,R
147483,63,P
147483,77,I
147483,93,L
147484,142,V
147484,162,A
147484,178,M
147484,207,G
147484,211,K
147484,238,R
147485,15,V
147485,16,E
147485,62,V
147485,63,C
147486,123,E
147486,162,C
147486,177,E
147487,14,R
147487,57,K
147487,63,P
147487,93,L
147488,211,G
147488,214,L
147489,26,M
147489,50,P
147489,101,A
147489,162,C
147489,177,E
147490,15,L
147490,19,I
147490,63,P
147490,65,D
147490,88,Y
147490,92,H
147491,6,D
147491,24,stop
147491,26,I
147491,27,D
147491,28,R
147491,29,R
147491,50,T
147491,51,P
147491,135,T
147491,162,C
147491,177,N
147491,211,K
147492,19,I
147492,20,R
147492,37,S
147492,41,K
147492,63,P
147492,92,K
147493,35,I
147493,173,E
147493,207,E
147493,245,T
147494,16,E
147494,37,S
147494,39,S
147494,63,P
147494,77,I
147494,93,L
147495,135,V
147495,162,C
147495,200,I
147495,203,D
147495,211,K
147496,32,I
147496,35,D
147496,37,D
147496,63,S
147496,64,L
147497,64,R
147497,69,S
147497,162,C
147497,194,G
147497,211,K
147498,57,K
147498,63,P
147498,93,L
147499,204,K
147499,211,G
147499,214,L
147500,10,V
147500,15,V
147500,36,I
147500,57,K
147500,63,P
147501,102,Q
147501,122,E
147501,123,E
147501,135,T
147501,162,C
147501,177,E
147501,189,I
147501,207,N
147502,13,V
147502,15,V
147502,35,D
147502,57,K
147502,63,P
147503,11,R
147503,20,R
147503,60,I
147503,123,E
147503,135,T
147503,177,E
147503,207,E
147503,248,D
147504,35,D
147504,36,I
147504,37,D
147504,62,V
147504,63,P
147504,93,L
147505,123,E
147505,162,C
147505,177,E
147505,200,A
147505,211,K
147506,33,I
147506,37,C
147506,39,S
147506,41,K
147506,63,P
147506,71,T
147506,93,L
147507,6,D
147507,162,C
147507,178,M
147507,194,D
147507,200,A
147507,245,E
147507,251,N
147508,13,V
147508,33,V
147508,34,G
147508,37,C
147508,39,S
147508,41,K
147508,60,E
147508,64,V
147509,83,K
147509,123,E
147509,177,E
147509,200,A
147509,211,K
147509,246,X
147510,18,H
147510,35,D
147510,41,K
147510,63,P
147510,93,L
147511,35,I
147511,41,L
147511,101,R
147511,135,R
147511,162,C
147511,211,K
147512,10,V
147512,37,S
147512,62,V
147512,63,P
147512,79,A
147512,83,T
147513,35,D
147513,36,I
147513,37,D
147513,62,V
147513,63,P
147513,64,L
147513,68,E
147513,71,V
147513,93,L
147514,20,R
147514,104,T
147514,122,E
147514,123,S
147514,168,stop
147514,171,L
147514,182,K
147514,186,V
147514,211,K
147514,247,X
147514,248,R
147514,251,V
147515,15,V
147515,36,I
147515,63,P
147516,35,I
147516,83,K
147516,123,E
147516,177,E
147516,245,E
147517,14,R
147517,37,S
147517,41,K
147517,63,P
147518,20,R
147518,99,X
147518,123,E
147518,135,T
147518,177,E
147518,211,K
147518,245,K
147518,250,E
147519,15,V
147519,35,D
147519,39,Q
147519,56,I
147519,63,P
147520,27,P
147520,83,K
147520,92,S
147520,100,C
147520,106,G
147520,109,Q
147520,115,H
147520,116,V
147520,118,G
147520,120,stop
147520,121,E
147520,130,G
147520,146,N
147520,148,A
147520,153,R
147520,159,T
147520,160,S
147520,167,T
147520,168,S
147520,178,R
147520,183,H
147520,184,T
147520,187,S
147520,193,S
147520,200,A
147520,209,P
147520,211,K
147520,214,S
147520,227,S
147520,228,P
147520,229,G
147520,232,D
147520,238,R
147520,239,G
147520,245,A
147521,63,P
147521,93,L
147522,27,P
147522,60,I
147522,69,S
147522,101,R
147522,138,A
147522,142,L
147522,173,N
147522,177,E
147522,178,M
147522,214,L
147523,41,K
147523,63,C
147523,72,V
147523,92,K
147524,135,T
147524,162,F
147524,179,I
147524,211,G
147525,36,I
147525,62,V
147525,63,C
147525,93,L
147526,135,V
147526,162,C
147526,176,S
147526,214,L
147527,12,S
147527,15,V
147527,19,I
147527,35,D
147527,36,I
147527,69,K
147527,89,M
147528,35,T
147528,36,A
147528,39,E
147528,48,T
147528,60,I
147528,122,E
147528,123,S
147528,173,T
147528,177,E
147528,200,A
147528,202,V
147528,204,Q
147528,211,K
147528,245,Q
147529,14,R
147529,19,Q
147529,37,S
147529,63,P
147529,93,L
147530,104,I
147530,116,V
147530,127,N
147530,128,I
147530,130,X
147530,132,L
147530,134,R
147530,136,R
147530,137,C
147530,138,Q
147530,139,K
147530,141,N
147530,143,Q
147530,144,H
147530,146,R
147530,147,X
147530,150,H
147530,153,R
147530,154,E
147530,155,R
147530,156,T
147530,160,S
147530,161,P
147530,162,R
147530,164,Q
147530,165,C
147530,168,P
147530,171,L
147530,174,A
147530,175,K
147530,177,E
147530,178,T
147530,180,M
147530,181,H
147530,182,A
147530,192,V
147530,193,P
147530,195,T
147530,197,P
147530,202,T
147530,205,P
147530,206,stop
147530,207,P
147530,208,P
147530,218,E
147530,219,Q
147531,63,C
147532,162,C
147532,189,I
147533,35,D
147533,63,P
147533,93,L
147534,135,T
147534,162,C
147534,173,R
147534,200,A
147534,211,K
147535,15,V
147535,77,I
147535,93,L
147536,35,I
147536,83,K
147536,123,E
147536,135,V
147536,211,K
147537,12,P
147537,14,R
147537,37,T
147537,63,C
147537,77,I
147537,93,L
147538,49,R
147538,123,E
147538,135,T
147538,162,C
147538,196,E
147539,35,D
147539,62,V
147539,63,C
147540,135,T
147540,142,T
147540,162,C
147541,13,V
147541,20,R
147541,36,I
147541,41,K
147541,62,V
147541,63,P
147541,93,L
147542,135,V
147542,211,K
147542,245,R
147542,248,D
147543,13,V
147543,20,R
147543,36,I
147543,41,K
147543,62,V
147543,63,P
147543,93,L
147544,135,V
147544,211,K
147544,245,R
147544,248,D
147545,2,N
147545,3,R
147545,16,R
147545,24,P
147545,26,P
147545,30,Y
147545,35,T
147545,36,A
147545,39,E
147545,41,R
147545,46,L
147545,48,T
147545,49,stop
147545,121,Y
147545,122,E
147545,123,E
147545,135,R
147545,173,A
147545,174,R
147545,177,E
147545,194,A
147545,200,A
147545,202,V
147545,207,E
147545,211,K
147545,245,Q
147545,250,E
147546,35,D
147546,63,P
147546,77,I
147546,93,L
147547,162,C
147547,211,K
147547,228,F
147547,249,Q
147548,35,D
147548,41,K
147548,62,V
147548,63,P
147548,93,L
147549,28,A
147549,60,I
147549,135,T
147549,142,T
147549,169,D
147549,179,D
147549,200,A
147549,214,L
147550,15,V
147550,16,E
147550,20,R
147550,36,I
147550,62,V
147550,63,C
147550,72,M
147551,6,D
147551,135,T
147551,162,C
147552,35,D
147552,37,D
147552,60,E
147552,63,P
147553,64,R
147553,123,E
147553,162,C
147553,169,D
147553,211,K
147554,15,V
147554,18,H
147554,35,D
147554,41,K
147554,63,S
147554,71,V
147554,93,L
147555,123,E
147555,135,R
147555,162,C
147555,177,E
147555,196,E
147555,211,Q
147555,214,L
147556,35,D
147556,36,I
147556,37,D
147556,63,P
147556,93,L
147557,162,C
147557,169,D
147557,200,A
147557,207,H
147557,211,K
147558,35,D
147558,63,P
147558,77,I
147558,93,L
147559,162,C
147559,211,T
147559,228,F
147560,16,E
147560,37,S
147560,39,S
147560,63,P
147560,77,I
147560,93,L
147561,135,V
147561,162,C
147561,200,I
147561,203,D
147561,211,K
147562,37,S
147562,41,K
147562,63,S
147562,77,I
147562,93,L
147563,123,E
147563,177,E
147563,178,M
147563,207,E
147563,245,M
147564,15,V
147564,77,I
147564,93,L
147565,35,I
147565,83,K
147565,123,E
147565,135,V
147566,15,V
147566,36,I
147566,41,K
147566,63,C
147566,93,L
147567,53,stop
147567,113,Y
147567,147,K
147567,162,C
147567,248,D
147568,14,R
147568,15,V
147568,35,D
147568,36,I
147568,41,K
147568,63,P
147569,123,E
147569,162,C
147569,178,L
147569,200,A
147569,204,Q
147569,207,A
147569,211,K
147569,248,D
147570,18,H
147570,35,D
147570,63,P
147570,93,L
147571,121,Y
147571,122,E
147571,135,R
147571,162,C
147571,179,I
147571,211,K
147572,10,V
147572,37,S
147572,62,V
147572,63,P
147572,93,L
147573,9,A
147573,14,T
147573,35,I
147573,132,V
147573,135,T
147573,162,C
147573,200,I
147573,245,K
147573,251,C
147574,19,T
147574,41,K
147574,62,V
147574,63,Q
147574,64,L
147574,77,I
147574,93,L
147575,145,C
147575,162,H
147575,200,A
147575,248,N
147576,35,D
147576,37,D
147576,41,K
147576,60,E
147576,63,P
147577,35,I
147577,121,H
147577,122,E
147577,177,E
147578,13,V
147578,35,D
147578,37,S
147578,41,K
147578,60,E
147578,63,P
147578,64,V
147578,77,I
147579,135,V
147579,189,I
147579,194,K
147579,196,E
147579,200,S
147579,214,L
147579,245,M
147580,16,E
147581,123,E
147581,138,A
147581,162,C
147581,177,E
147581,202,V
147581,211,K
147582,35,D
147582,37,S
147582,63,P
147583,20,R
147583,123,E
147583,166,R
147583,211,K
147583,245,M
147583,251,I
147584,13,V
147584,15,V
147584,16,E
147584,62,V
147584,63,H
147585,8,I
147585,35,I
147585,60,I
147585,123,E
147585,135,M
147585,174,K
147585,178,L
147585,211,K
147586,35,D
147586,37,D
147586,57,K
147586,62,V
147586,63,S
147586,82,I
147586,93,L
147587,142,T
147587,200,A
147587,211,G
147588,12,P
147588,19,I
147588,37,D
147588,57,K
147588,63,C
147588,71,T
147588,77,I
147589,49,R
147589,123,E
147589,135,T
147589,162,C
147589,169,D
147589,211,Q
147590,63,C
147591,162,C
147591,189,I
147591,211,K
147592,12,S
147592,15,V
147592,16,E
147592,19,I
147592,20,R
147592,36,I
147592,41,K
147592,57,K
147592,63,T
147592,69,K
147592,93,L
147593,35,T
147593,36,A
147593,39,E
147593,48,E
147593,60,I
147593,122,E
147593,123,S
147593,173,T
147593,174,K
147593,200,A
147593,207,E
147593,211,K
147593,245,M
147594,35,D
147594,37,D
147594,41,K
147594,60,E
147594,63,P
147594,77,I
147595,26,F
147595,29,V
147595,123,N
147595,177,E
147595,211,G
147596,13,V
147596,41,K
147596,57,K
147596,60,E
147596,64,V
147597,26,F
147597,123,E
147597,179,D
147597,214,L
147597,245,Q
147598,12,A
147598,63,P
147598,77,I
147598,93,L
147599,28,A
147599,60,I
147599,86,H
147599,130,P
147599,135,T
147599,142,T
147599,169,D
147599,179,D
147599,207,E
147599,210,S
147599,214,L
147600,12,K
147600,39,A
147600,63,P
147600,71,T
147600,77,I
147600,93,L
147601,177,E
147601,178,M
147601,179,I
147601,200,A
147601,207,E
147602,15,V
147602,35,D
147602,63,C
147602,93,L
147603,162,C
147603,211,K
147604,57,K
147604,63,P
147604,93,L
147605,135,T
147605,211,K
147605,214,L
147606,13,V
147606,15,V
147606,20,R
147606,22,S
147606,36,I
147606,57,K
147606,72,V
147607,135,T
147607,245,M
147607,250,E
147608,122,E
147608,123,E
147608,135,R
147608,245,K
147608,250,E
147609,2,F
147609,3,G
147609,5,L
147609,7,P
147609,17,V
147609,23,X
147609,27,A
147609,28,G
147609,34,F
147609,36,G
147609,37,L
147609,40,G
147609,48,stop
147609,122,F
147609,123,E
147609,162,C
147609,177,E
147609,200,A
147609,211,S
147610,10,V
147610,14,R
147610,15,V
147610,35,D
147610,63,P
147610,93,L
147611,35,I
147611,64,R
147611,135,T
147611,178,M
147611,207,E
147611,245,I
147612,10,I
147612,63,P
147612,64,L
147612,77,I
147612,93,L
147613,121,Y
147613,122,E
147613,123,E
147613,135,V
147613,162,C
147613,207,E
147613,248,D
147613,251,I
147614,69,S
147614,76,V
147614,90,I
147614,118,I
147614,121,Y
147614,122,E
147614,125,S
147614,126,stop
147614,135,T
147614,142,L
147614,144,F
147614,173,E
147614,177,E
147614,200,M
147614,207,E
147614,211,K
147614,245,T
147614,250,E
147615,15,V
147615,35,D
147615,37,S
147615,41,K
147615,64,V
147616,122,E
147616,162,C
147616,177,E
147616,245,E
147617,12,K
147617,14,R
147617,35,D
147617,37,S
147617,41,K
147617,43,R
147617,62,V
147617,63,P
147617,71,V
147617,77,I
147617,93,L
147618,35,I
147618,98,S
147618,122,E
147618,123,N
147618,178,L
147618,196,E
147618,207,R
147618,211,A
147619,12,S
147619,35,D
147619,37,D
147619,43,R
147619,57,K
147619,60,E
147619,63,P
147619,71,T
147620,122,E
147620,123,G
147620,135,T
147620,211,A
147620,214,L
147621,15,V
147621,36,I
147621,41,K
147621,63,C
147621,77,I
147621,93,L
147622,135,T
147622,162,C
147622,173,R
147623,57,K
147623,63,P
147623,93,L
147624,26,F
147624,121,Y
147624,122,E
147624,135,T
147624,162,C
147624,173,R
147624,211,K
147624,214,L
147625,63,C
147625,93,L
147626,63,S
147626,64,L
147626,69,Q
147626,77,I
147627,29,V
147627,35,I
147627,36,V
147627,46,N
147627,158,S
147627,245,M
147628,13,V
147628,35,D
147628,37,S
147628,41,K
147628,60,E
147628,63,P
147628,64,V
147628,77,I
147629,24,stop
147629,26,I
147629,27,K
147629,28,R
147629,29,L
147629,31,Q
147629,36,K
147629,37,F
147629,38,L
147629,49,R
147629,53,K
147629,76,A
147629,77,N
147629,90,E
147629,100,V
147629,102,R
147629,103,R
147629,116,K
147629,117,T
147629,135,V
147629,196,E
147629,200,S
147629,203,G
147629,214,L
147630,63,S
147630,64,L
147630,69,Q
147631,103,stop
147631,135,T
147631,158,S
147631,245,M
147632,14,R
147632,41,K
147632,60,E
147632,63,P
147632,77,I
147632,93,L
147633,200,I
147633,214,L
147634,15,V
147634,36,I
147634,41,K
147634,60,E
147634,63,C
147634,93,L
147635,135,T
147635,162,C
147635,174,K
147635,207,E
147636,19,I
147636,37,S
147636,41,K
147636,63,P
147636,93,L
147637,20,R
147637,122,P
147637,177,E
147637,196,E
147637,211,G
147637,245,K
147637,250,E
147638,13,V
147638,35,Y
147638,37,S
147638,44,K
147638,63,P
147639,57,K
147639,71,T
147639,77,I
147640,98,S
147640,139,K
147640,162,C
147640,184,V
147640,196,E
147640,207,E
147640,211,K
147640,214,L
147640,228,Q
147640,245,E
147641,35,D
147641,37,Y
147641,41,K
147641,45,R
147641,62,V
147641,63,P
147641,77,I
147641,93,L
147642,39,S
147642,142,V
147642,162,A
147642,174,H
147642,178,M
147642,207,E
147642,211,K
147642,238,R
147643,12,S
147643,15,V
147643,19,I
147644,122,E
147644,162,C
147644,203,D
147644,207,A
147644,211,K
147644,245,E
147645,13,V
147645,35,D
147645,37,S
147645,63,P
147646,20,R
147646,123,E
147646,135,T
147646,166,R
147646,200,X
147646,211,K
147646,219,stop
147646,223,I
147646,226,L
147646,228,X
147646,233,D
147647,35,D
147647,63,P
147647,93,L
147648,49,R
147648,162,C
147648,173,R
147648,211,K
147649,37,S
147649,63,C
147649,72,T
147649,77,I
147650,162,C
147651,15,V
147651,36,I
147651,63,C
147651,70,Q
147652,86,E
147652,102,Q
147652,135,R
147652,162,Y
147652,196,E
147653,12,S
147653,19,I
147653,63,P
147654,142,V
147654,162,C
147654,211,K
147654,245,E
147655,15,V
147655,16,A
147655,57,K
147656,35,I
147656,41,L
147656,122,E
147656,135,T
147656,162,C
147656,215,E
147657,35,D
147657,36,I
147657,37,D
147657,63,P
147657,93,L
147658,169,D
147658,200,A
147658,211,Q
147659,35,D
147659,36,I
147659,37,D
147659,63,P
147659,69,Q
147659,71,V
147659,93,L
147660,106,I
147660,123,E
147660,162,C
147660,173,E
147660,178,L
147660,207,E
147662,35,I
147662,123,E
147662,173,E
147662,179,I
147662,207,E
147662,245,M
147663,16,E
147664,83,K
147664,123,E
147664,126,X
147664,138,A
147664,162,C
147664,177,E
147664,202,V
147664,211,K
147665,37,A
147665,39,S
147665,63,P
147665,77,I
147666,162,C
147666,180,V
147666,197,E
147666,211,K
147667,41,K
147668,35,I
147668,83,K
147668,122,V
147668,123,N
147668,139,K
147668,177,E
147668,179,I
147668,200,I
147669,35,D
147669,37,D
147669,63,P
147669,71,T
147669,77,I
147669,93,L
147670,162,C
147670,211,K
147671,10,V
147671,13,V
147671,15,V
147671,35,D
147671,37,D
147671,63,P
147671,64,V
147672,123,E
147672,135,M
147672,165,I
147672,202,V
147672,211,K
147673,15,V
147673,18,L
147673,35,D
147673,36,I
147673,37,D
147673,41,K
147673,63,P
147673,93,L
147674,135,R
147674,162,W
147674,211,K
147674,251,I
147675,12,A
147675,35,D
147675,36,I
147675,63,P
147675,93,L
147676,135,T
147676,162,C
147676,174,K
147676,197,E
147676,200,A
147676,211,K
147677,13,V
147677,15,V
147677,64,V
147678,162,C
147678,169,D
147678,245,K
147679,36,I
147679,62,V
147679,63,C
147679,64,V
147680,122,E
147680,200,A
147680,245,L
147681,14,R
147681,36,I
147681,62,V
147681,63,C
147682,122,P
147682,162,C
147682,176,S
147682,189,I
147683,12,A
147683,15,V
147683,19,I
147683,63,T
147683,65,D
147683,70,R
147683,77,I
147684,123,E
147684,135,T
147684,177,E
147685,10,V
147685,13,V
147685,15,V
147685,35,D
147685,37,S
147685,62,V
147685,63,P
147686,26,F
147686,98,S
147686,122,E
147686,135,T
147686,211,K
147687,14,R
147687,36,I
147687,62,V
147687,63,C
147687,93,L
147688,162,C
147688,189,I
147688,207,R
147689,10,V
147689,37,S
147689,62,V
147689,63,P
147689,93,L
147690,6,D
147690,14,T
147690,35,I
147690,102,R
147690,162,C
147690,200,I
147690,245,K
147690,251,C
147691,12,A
147691,13,V
147691,14,R
147691,37,S
147691,41,K
147691,45,R
147691,60,E
147691,62,V
147691,63,P
147691,64,V
147691,77,I
147692,135,M
147692,200,S
147693,36,I
147693,37,D
147693,60,E
147693,62,V
147693,63,S
147693,71,V
147693,77,I
147693,93,L
147694,60,I
147694,64,R
147694,122,E
147694,174,K
147694,196,E
147694,200,A
147694,202,V
147694,207,E
147695,15,V
147695,35,D
147695,37,A
147695,90,F
147696,35,L
147696,86,E
147696,200,A
147696,202,V
147696,211,K
147696,214,L
147696,245,T
147697,13,V
147697,16,E
147697,20,R
147697,35,D
147697,36,I
147697,41,K
147697,57,K
147697,69,K
147697,89,M
147698,35,T
147698,122,A
147698,123,S
147698,135,T
147698,173,L
147698,177,E
147698,179,I
147698,207,A
147698,211,S
147698,245,K
147698,250,E
147699,10,I
147699,13,V
147699,37,S
147699,41,K
147699,47,M
147699,63,P
147699,93,L
147700,35,L
147700,39,A
147700,48,T
147700,122,E
147700,174,L
147700,245,K
147701,37,T
147701,63,P
147701,64,V
147702,122,E
147703,41,K
147703,46,I
147703,63,C
147703,72,T
147703,77,I
147703,93,L
147704,121,Y
147704,122,E
147704,174,R
147704,176,T
147704,207,E
147704,211,K
147705,39,S
147705,63,P
147705,93,L
147706,123,E
147706,135,V
147706,162,C
147706,177,E
147707,12,I
147707,37,E
147707,62,V
147707,63,S
147707,77,I
147708,39,A
147708,41,L
147708,60,I
147708,90,I
147708,122,P
147708,142,T
147708,162,C
147708,207,E
147708,210,W
147708,211,K
147708,215,S
147709,12,P
147709,14,R
147709,19,Q
147709,63,C
147709,71,T
147709,93,L
147710,123,E
147710,135,T
147710,162,C
147710,177,E
147710,195,L
147710,207,E
147710,211,K
147711,13,V
147711,35,D
147711,36,I
147711,41,K
147711,45,R
147711,57,K
147711,60,E
147711,67,Y
147711,69,K
147711,89,M
147712,35,T
147712,40,D
147712,49,R
147712,60,I
147712,121,H
147712,122,E
147712,177,E
147712,207,E
147712,211,S
147712,245,E
147713,41,K
147713,46,I
147713,63,C
147713,72,T
147713,77,I
147713,93,L
147714,121,Y
147714,122,E
147714,135,T
147714,174,K
147714,207,E
147714,211,K
147714,246,M
147715,13,V
147715,14,R
147715,16,E
147715,35,D
147715,36,I
147715,41,K
147715,57,K
147715,60,E
147715,67,Y
147715,69,K
147715,89,M
147715,93,L
147716,35,T
147716,40,D
147716,49,R
147716,60,I
147716,108,I
147716,121,C
147716,122,E
147716,177,E
147716,207,E
147716,211,K
147716,244,V
147716,245,E
147717,37,E
147717,62,V
147717,63,S
147718,41,L
147718,60,I
147718,122,P
147718,207,E
147718,210,W
147718,211,K
147718,215,S
147719,15,V
147719,37,S
147720,83,K
147720,101,Q
147720,122,E
147720,173,R
147720,200,N
147720,248,D
147721,12,I
147721,35,D
147721,37,E
147721,62,V
147721,63,P
147722,39,A
147722,41,L
147722,60,I
147722,122,P
147722,142,T
147722,162,C
147722,207,E
147722,210,W
147722,211,K
147722,215,S
147722,241,I
147723,36,I
147723,37,D
147723,62,V
147723,63,C
147724,121,Y
147724,122,E
147724,135,T
147724,162,C
147725,10,I
147725,14,R
147725,35,D
147725,37,D
147725,63,P
147725,93,L
147726,90,I
147726,122,E
147726,211,K
147726,245,M
147727,10,V
147727,15,V
147727,19,V
147727,38,W
147727,57,K
147727,62,V
147727,63,P
147727,93,L
147728,35,I
147728,98,S
147728,122,E
147728,173,Q
147728,207,E
147729,8,Q
147729,15,V
147729,37,C
147730,45,R
147730,102,Q
147730,106,I
147730,122,E
147731,12,A
147731,41,K
147731,46,I
147731,63,C
147731,72,T
147731,93,L
147732,121,Y
147732,122,E
147732,135,M
147732,174,N
147732,207,E
147732,211,K
147732,246,M
147733,10,I
147733,41,K
147733,60,E
147733,63,P
147733,64,V
147733,77,I
147733,93,L
147734,6,D
147734,60,I
147734,123,E
147734,177,E
147734,178,V
147734,207,E
147735,35,D
147735,36,I
147735,37,E
147735,62,V
147735,63,P
147735,64,M
147736,39,A
147736,41,L
147736,122,P
147736,142,M
147736,162,C
147736,178,L
147736,203,K
147736,207,E
147736,210,W
147736,211,K
147736,215,S
147736,241,I
147737,35,D
147737,36,I
147737,37,E
147737,62,V
147737,63,P
147737,64,M
147738,35,E
147738,39,A
147738,41,L
147738,122,P
147738,142,M
147738,162,C
147738,178,L
147738,203,K
147738,207,E
147738,210,W
147738,211,K
147738,215,S
147738,241,I
147739,10,I
147739,14,R
147739,35,D
147739,37,D
147739,63,P
147739,93,L
147740,174,K
147740,207,E
147740,245,M
147741,10,V
147741,15,V
147741,19,V
147741,57,K
147741,63,P
147741,93,L
147742,98,S
147742,102,R
147742,122,E
147742,173,Q
147742,207,E
147743,15,V
147743,36,I
147743,41,K
147743,64,V
147743,69,K
147743,93,L
147744,35,T
147744,36,A
147744,39,E
147744,49,R
147744,98,S
147744,122,E
147744,123,S
147744,173,A
147744,174,K
147744,177,E
147744,200,A
147744,207,E
147744,208,Y
147744,211,K
147744,245,Q
147745,12,P
147745,14,R
147745,63,C
147745,93,L
147746,99,X
147746,122,E
147746,142,V
147746,178,M
147746,207,E
147747,12,K
147747,41,K
147747,46,I
147747,63,C
147747,72,T
147747,93,L
147748,32,N
147748,35,I
147748,122,E
147748,135,R
147748,162,C
147748,174,K
147748,207,E
147748,211,K
147749,10,V
147749,15,V
147749,36,I
147749,63,C
147750,123,E
147750,135,T
147750,162,C
147750,177,E
147750,215,D
147751,15,V
147751,35,D
147751,37,D
147751,63,V
147751,93,L
147752,49,R
147752,60,I
147752,83,K
147752,135,T
147752,195,L
147752,200,A
147752,211,K
147753,41,K
147753,46,I
147753,63,C
147753,72,T
147753,77,I
147753,93,L
147754,121,Y
147754,122,E
147754,174,R
147754,178,M
147754,207,E
147754,211,K
147754,246,M
147755,13,V
147755,14,R
147755,35,D
147755,36,I
147755,41,K
147755,57,K
147755,60,E
147755,67,Y
147755,69,K
147755,89,M
147756,10,V
147756,15,V
147756,19,V
147756,41,K
147756,57,K
147756,63,P
147756,93,L
147757,98,S
147757,102,R
147757,122,E
147757,173,Q
147757,207,E
147758,13,V
147758,35,D
147758,36,I
147758,41,K
147758,57,K
147758,60,E
147758,69,K
147758,89,M
147758,93,L
147759,35,T
147759,40,D
147759,49,R
147759,60,I
147759,122,E
147759,135,T
147759,177,E
147759,178,M
147759,207,E
147759,211,K
147759,244,V
147759,245,E
147759,250,E
147760,33,V
147760,37,C
147760,63,P
147760,93,L
147761,20,R
147761,35,I
147761,60,I
147761,83,K
147761,123,E
147761,177,E
147761,200,G
147761,211,K
147762,37,S
147762,64,V
147762,77,I
147762,93,L
147763,135,V
147763,162,C
147763,218,E
147764,12,S
147764,15,V
147764,19,I
147764,37,S
147764,41,K
147764,69,K
147764,77,I
147764,89,M
147764,93,L
147765,35,T
147765,36,A
147765,39,E
147765,48,T
147765,122,A
147765,173,A
147765,174,K
147765,177,E
147765,200,A
147765,207,E
147765,245,K
147765,250,E
147766,12,S
147766,15,V
147766,19,V
147766,36,L
147766,41,K
147766,60,E
147766,69,R
147766,89,M
147766,93,L
147767,35,T
147767,36,A
147767,39,E
147767,40,D
147767,118,I
147767,122,E
147767,123,S
147767,138,A
147767,142,V
147767,173,T
147767,174,K
147767,200,A
147767,207,E
147767,214,L
147767,245,Q
147768,10,I
147768,36,I
147768,45,R
147768,62,V
147768,63,P
147768,77,I
147768,82,I
147768,93,L
147768,94,H
147769,35,Q
147769,36,I
147769,37,E
147769,62,V
147769,63,P
147769,72,V
147769,93,L
147770,41,L
147770,106,I
147770,122,P
147770,162,C
147770,207,K
147770,208,Y
147770,210,W
147770,211,K
147770,215,S
147770,241,I
147771,10,V
147771,15,V
147771,36,I
147771,63,C
147771,72,T
147771,93,L
147772,89,M
147773,175,H
147773,214,L
147773,245,K
147774,10,I
147774,13,V
147774,17,E
147774,20,I
147774,36,I
147774,41,K
147774,46,I
147774,54,V
147774,60,E
147774,66,F
147774,69,R
147774,82,T
147774,84,V
147774,89,M
147775,20,R
147775,27,S
147775,35,T
147775,36,D
147775,122,E
147775,135,V
147775,162,A
147775,173,T
147775,174,K
147775,177,E
147775,184,V
147775,200,A
147775,207,E
147775,214,L
147775,245,Q
147776,35,D
147776,64,V
147776,82,I
147777,83,K
147777,123,E
147777,166,R
147777,211,K
147777,245,Q
147778,10,I
147778,19,I
147778,35,D
147778,63,P
147778,67,Y
147778,93,L
147779,35,I
147779,162,T
147779,178,M
147779,211,A
147780,15,V
147780,19,T
147781,123,E
147781,135,T
147781,162,C
147781,211,K
147782,64,V
147783,21,I
147783,135,T
147783,142,V
147783,158,S
147783,162,A
147783,169,D
147783,196,E
147783,215,S
147784,4,P
147784,10,V
147784,13,V
147784,15,V
147784,35,D
147784,36,I
147784,46,V
147784,63,S
147785,64,R
147785,174,H
147785,211,K
147785,245,E
147786,35,D
147786,37,H
147786,39,S
147786,41,K
147786,62,V
147786,63,P
147787,202,V
147787,211,K
147787,214,L
147788,64,V
147789,100,stop
147789,135,T
147789,142,V
147789,158,S
147789,162,A
147789,169,D
147789,196,E
147789,215,S
147790,12,S
147790,37,Y
147790,62,V
147790,77,I
147790,93,L
147791,20,R
147791,83,K
147791,162,T
147791,166,R
147791,211,K
147791,215,E
147791,245,E
147792,89,M
147793,175,H
147793,214,L
147793,245,K
147794,35,D
147794,37,H
147794,39,S
147794,41,K
147794,62,V
147794,63,P
147795,202,V
147795,204,D
147795,211,K
147795,214,L
147796,10,V
147796,13,V
147796,14,R
147796,35,D
147796,36,I
147796,41,K
147796,69,K
147796,89,M
147797,6,G
147797,11,A
147797,35,T
147797,36,A
147797,39,K
147797,43,E
147797,106,I
147797,122,E
147797,123,G
147797,135,T
147797,162,Y
147797,173,S
147797,177,E
147797,179,I
147797,207,A
147797,211,S
147797,214,L
147797,245,Q
147798,15,V
147798,19,Q
147798,36,I
147798,63,C
147798,93,L
147799,14,R
147799,36,I
147799,37,D
147799,62,V
147799,63,C
147799,72,V
147800,53,D
147800,121,Y
147800,122,X
147800,162,C
147801,15,V
147801,35,D
147801,37,D
147801,63,P
147801,93,L
147802,135,T
147802,162,C
147802,195,T
147802,214,L
147803,37,S
147803,46,I
147803,48,H
147803,49,P
147803,51,P
147803,52,H
147803,56,I
147803,57,I
147803,65,stop
147803,68,A
147803,71,S
147803,73,R
147803,75,I
147803,77,I
147803,78,P
147803,82,L
147803,86,P
147803,90,F
147803,92,H
147803,94,R
147804,3,T
147804,6,Q
147804,8,I
147804,10,L
147804,13,N
147804,15,P
147804,16,I
147804,17,H
147804,18,A
147804,21,L
147804,24,S
147804,26,F
147804,28,Q
147804,29,Q
147804,36,H
147804,40,K
147804,41,I
147804,42,Q
147804,45,P
147804,47,M
147804,51,P
147804,83,K
147804,122,E
147804,165,I
147804,200,E
147804,202,V
147804,207,E
147805,31,P
147805,32,A
147805,33,I
147805,37,S
147805,45,stop
147805,46,I
147805,54,A
147805,55,N
147805,56,P
147805,61,H
147805,62,K
147805,63,C
147805,70,Q
147806,162,C
147806,211,K
147807,19,V
147807,36,I
147807,41,K
147807,69,K
147807,89,M
147807,93,L
147808,6,D
147808,20,R
147808,35,T
147808,36,A
147808,39,E
147808,48,T
147808,122,E
147808,123,G
147808,173,A
147808,174,K
147808,177,E
147808,196,V
147808,200,A
147808,207,E
147808,245,Q
147809,12,E
147809,35,D
147809,63,P
147809,70,N
147809,93,L
147810,13,V
147810,19,Q
147810,35,D
147810,36,I
147810,41,K
147810,57,K
147810,63,P
147810,69,K
147810,70,R
147810,89,M
147811,12,S
147811,19,I
147811,57,K
147811,63,C
147811,71,T
147812,135,T
147812,162,C
